# OpenSignals Text File Format
# {"00:07:80:3B:46:38": {"sensor": ["XYZ", "XYZ", "XYZ"], "device name": "00:07:80:3B:46:38", "column": ["nSeq", "DI", "x", "y", "z"], "sync interval": 2, "time": "16:16:31.745", "comments": "", "device connection": "BTH00:07:80:3B:46:38", "channels": [1, 2, 3], "date": "2016-6-30", "mode": 0, "digital IO": [0, 1], "firmware version": 772, "device": "biosignalsplux", "position": 0, "sampling rate": 100, "label": ["x", "y", "z"], "resolution": [16, 16, 16], "special": [{}, {}, {}]}}
# EndOfHeader
0	0	37028	30544	33206	
1	0	36930	30598	33158	
2	0	36960	30614	33152	
3	0	36999	30592	33095	
4	0	36592	30612	33048	
5	0	36420	30711	32918	
6	0	37114	30649	33004	
7	0	37377	30553	33110	
8	0	36772	30940	32772	
9	0	37282	30034	33220	
10	0	37368	31468	32640	
11	0	37058	31149	32511	
12	0	37538	30671	32686	
13	0	37408	30892	32716	
14	0	37400	30850	32985	
15	0	37074	30610	33063	
16	0	36684	30778	32907	
17	0	36712	30414	32916	
18	0	36820	30880	33062	
19	0	37074	30780	33001	
20	0	37077	30757	33004	
21	0	37077	30768	32980	
22	0	37058	30778	33015	
23	0	36882	30775	32903	
24	0	37348	30983	33027	
25	0	36948	30632	32903	
26	0	36952	30766	32918	
27	0	37092	30685	33059	
28	0	36968	30745	33024	
29	0	36999	30722	33044	
30	0	36902	30773	33018	
31	0	37092	30684	33004	
32	0	37042	30672	33003	
33	0	36599	30550	33014	
34	0	37128	30724	33008	
35	0	36794	30622	32966	
36	0	37504	31066	32802	
37	0	37088	30657	32954	
38	0	36704	30726	33035	
39	0	37382	30659	33128	
40	0	37664	30279	32887	
41	0	37008	30582	33013	
42	0	36750	30720	33095	
43	0	37140	30701	32960	
44	0	37112	30563	32943	
45	0	37092	30407	33017	
46	0	37596	30599	33068	
47	0	36652	30620	33142	
48	0	36824	31156	32984	
49	0	36992	30983	32956	
50	0	36808	29984	33118	
51	0	36644	30304	33113	
52	0	36752	30433	32962	
53	0	36514	30599	33099	
54	0	36795	30460	33074	
55	0	36792	30000	33159	
56	0	37016	30422	33078	
57	0	36742	29732	33095	
58	0	36706	30200	32910	
59	0	36888	30303	32936	
60	0	36824	30199	33185	
61	0	36642	30325	32957	
62	0	36904	30127	33028	
63	0	36772	30028	32967	
64	0	36608	30319	32814	
65	0	36772	30054	33042	
66	0	37124	29842	32832	
67	0	36716	30186	32863	
68	0	36682	30164	32925	
69	0	36780	30249	32988	
70	0	36730	29966	33093	
71	0	37284	30134	32986	
72	0	36818	29989	32937	
73	0	36688	30151	32842	
74	0	36624	30202	32811	
75	0	35840	30352	32922	
76	0	37656	29902	32896	
77	0	36688	30111	32932	
78	0	36466	30321	32816	
79	0	36672	30403	32817	
80	0	36792	30261	32814	
81	0	37092	29939	32900	
82	0	36496	30004	33064	
83	0	37346	30233	32850	
84	0	36825	30070	32935	
85	0	37024	30037	32874	
86	0	36924	29750	33072	
87	0	36800	29849	33310	
88	0	36696	30244	32676	
89	0	36484	30022	33076	
90	0	37228	30374	33082	
91	0	36964	29520	33287	
92	0	36640	29854	33135	
93	0	36452	29821	33242	
94	0	36460	29970	33031	
95	0	36728	30252	32797	
96	0	36359	29872	33082	
97	0	36824	30076	32876	
98	0	36712	30132	33258	
99	0	36624	30061	33061	
100	0	36724	30148	33016	
101	0	36644	30087	33076	
102	0	36640	30022	33121	
103	0	36776	30255	32970	
104	0	36528	29889	33091	
105	0	36928	30140	33064	
106	0	36576	29821	33190	
107	0	36694	30016	32951	
108	0	36588	29939	33135	
109	0	36588	29946	33166	
110	0	36668	29944	33031	
111	0	36676	30040	33062	
112	0	36610	29954	33204	
113	0	36544	29914	33209	
114	0	36654	30066	33212	
115	0	36487	29974	33152	
116	0	36560	29987	33376	
117	0	36562	29803	33205	
118	0	36769	30136	33223	
119	0	36588	30057	33144	
120	0	36562	29908	33252	
121	0	36730	30121	33117	
122	0	36564	29934	33287	
123	0	36548	29968	33257	
124	0	36592	29906	33234	
125	0	36584	29906	33253	
126	0	36604	30055	33118	
127	0	36384	30016	33234	
128	0	36554	29895	33360	
129	0	36468	29933	33380	
130	0	36600	29889	33254	
131	0	36544	29912	33244	
132	0	36551	29888	33315	
133	0	36564	29825	33305	
134	0	36739	29970	33314	
135	0	36388	29992	33220	
136	0	36424	30144	33284	
137	0	36524	29872	33212	
138	0	36546	29872	33212	
139	0	36600	29860	33134	
140	0	36566	29856	33089	
141	0	36032	29089	33274	
142	0	37236	30518	32858	
143	0	36624	30100	33076	
144	0	36708	30162	33046	
145	0	36496	29902	33140	
146	0	36384	29606	33170	
147	0	37264	30510	32834	
148	0	36212	29155	33223	
149	0	36424	29916	33164	
150	0	36382	29607	33232	
151	0	36197	29352	33240	
152	0	36086	29342	33251	
153	0	36332	29621	33216	
154	0	36550	29986	33068	
155	0	36704	30242	33063	
156	0	36616	29908	33081	
157	0	36688	30151	33015	
158	0	36498	29895	33176	
159	0	36524	29717	33142	
160	0	36536	29888	33101	
161	0	36468	29882	33117	
162	0	36508	29821	33100	
163	0	36496	29846	33118	
164	0	36512	29794	33095	
165	0	36538	29746	33094	
166	0	36512	29798	33094	
167	0	36490	29823	33088	
168	0	36487	29810	33110	
169	0	36480	29831	33128	
170	0	36486	29810	33095	
171	0	36492	29836	33110	
172	0	36492	29813	33090	
173	0	36486	29822	33092	
174	0	36517	29786	33054	
175	0	36532	29813	33069	
176	0	36498	29798	33040	
177	0	36441	29874	33014	
178	0	36506	29822	33014	
179	0	36562	29842	32970	
180	0	36624	29827	33012	
181	0	36516	29853	32998	
182	0	36512	29812	33031	
183	0	36512	29812	33019	
184	0	36516	29804	33000	
185	0	36498	29825	32999	
186	0	36492	29836	32998	
187	0	36524	29831	32985	
188	0	36504	29800	32967	
189	0	36538	29822	33031	
190	0	36508	29826	32962	
191	0	36532	29824	33004	
192	0	36536	29815	32981	
193	0	36496	29831	33011	
194	0	36500	29834	33001	
195	0	36496	29824	33002	
196	0	36512	29810	32993	
197	0	36520	29815	32981	
198	0	36537	29811	32992	
199	0	36500	29820	33010	
200	0	36498	29824	32995	
201	0	36524	29826	33010	
202	0	36488	29831	33020	
203	0	36538	29808	33008	
204	0	36336	29930	33012	
205	0	36584	29741	33007	
206	0	36520	29791	32998	
207	0	36450	29863	33032	
208	0	36476	29808	32998	
209	0	36621	29786	32948	
210	0	36584	29703	32953	
211	0	36550	29767	32996	
212	0	36480	29818	33004	
213	0	36520	29777	32985	
214	0	36456	29810	32989	
215	0	36546	29736	33049	
216	0	36524	29764	32924	
217	0	36464	29772	32955	
218	0	36578	29718	32930	
219	0	36340	29465	32989	
220	0	36464	29776	32920	
221	0	36408	29564	32938	
222	0	36448	29729	32918	
223	0	36430	29759	32914	
224	0	36424	29740	32923	
225	0	36568	29588	32959	
226	0	36423	29728	32903	
227	0	36357	29800	32890	
228	0	36496	29650	32902	
229	0	36420	29724	32952	
230	0	36424	29931	32903	
231	0	36408	29703	32928	
232	0	36384	29655	32934	
233	0	36244	29520	32919	
234	0	36460	29910	32848	
235	0	36432	29520	32876	
236	0	36355	29664	32890	
237	0	36432	29748	32818	
238	0	36124	30087	32788	
239	0	36448	29547	32864	
240	0	36336	29840	32808	
241	0	36748	29352	32806	
242	0	36560	29452	32839	
243	0	36560	29716	32813	
244	0	35912	29019	33058	
245	0	36935	29917	32902	
246	0	36242	29680	32902	
247	0	35924	29552	32917	
248	0	36280	29831	32826	
249	0	36308	29500	32876	
250	0	35868	29447	32797	
251	0	36128	29444	32792	
252	0	36552	29282	32658	
253	0	36282	29344	32806	
254	0	36200	29297	32973	
255	0	36196	29236	32822	
256	0	36205	29298	32884	
257	0	36308	29466	32796	
258	0	36110	29388	32855	
259	0	36444	29449	32808	
260	0	36218	29439	32830	
261	0	36050	29392	32926	
262	0	36200	29362	32919	
263	0	36214	29570	32866	
264	0	36096	29529	32848	
265	0	36265	29346	32874	
266	0	36137	29474	32903	
267	0	36048	29415	32858	
268	0	36420	29357	32866	
269	0	36033	29674	32775	
270	0	36224	29554	32747	
271	0	36076	29278	32931	
272	0	36504	29332	32844	
273	0	35968	29299	32808	
274	0	36870	29604	32922	
275	0	36024	29830	32885	
276	0	36359	29806	32754	
277	0	36414	29649	32799	
278	0	36450	29395	32829	
279	0	36294	29092	32870	
280	0	36505	29497	32775	
281	0	36308	29673	32817	
282	0	36359	29627	32888	
283	0	36372	29600	32920	
284	0	36124	29012	32967	
285	0	36180	29140	33058	
286	0	36482	29645	32893	
287	0	36188	29624	32666	
288	0	36560	29652	32886	
289	0	36934	29986	32686	
290	0	36487	29436	33453	
291	0	36160	29993	32896	
292	0	36348	29897	32811	
293	0	36320	29545	33024	
294	0	36806	29511	33047	
295	0	35914	29776	32730	
296	0	36167	29594	32919	
297	0	36428	29902	32835	
298	0	36384	29562	32867	
299	0	36329	29539	32874	
300	0	36384	29539	32839	
301	0	36344	29619	32824	
302	0	36348	29611	32820	
303	0	36354	29630	32832	
304	0	36354	29606	32824	
305	0	36368	29602	32818	
306	0	36359	29616	32817	
307	0	36376	29590	32803	
308	0	36346	29614	32836	
309	0	36359	29625	32861	
310	0	36368	29656	32822	
311	0	36346	29645	32859	
312	0	36368	29612	32832	
313	0	36320	29659	32872	
314	0	36359	29596	32819	
315	0	36326	29558	32869	
316	0	36340	29607	32818	
317	0	36359	29605	32855	
318	0	36374	29580	32850	
319	0	36352	29625	32884	
320	0	36359	29609	32846	
321	0	36338	29630	32860	
322	0	36344	29635	32844	
323	0	36216	29654	32873	
324	0	36392	29568	32868	
325	0	36330	29627	32860	
326	0	36346	29611	32839	
327	0	36328	29636	32844	
328	0	36264	29695	32838	
329	0	36358	29575	32829	
330	0	36356	29554	32839	
331	0	36312	29618	32858	
332	0	36284	29624	32775	
333	0	36256	29607	32796	
334	0	36260	29542	32850	
335	0	36212	29456	32775	
336	0	36660	29554	32784	
337	0	36304	29626	32812	
338	0	36336	29550	32810	
339	0	36348	29541	32792	
340	0	36304	29566	32813	
341	0	36336	29536	32850	
342	0	36294	29594	32820	
343	0	36340	29569	32839	
344	0	36306	29570	32846	
345	0	36298	29531	32826	
346	0	36420	29587	32812	
347	0	36288	29526	32846	
348	0	36080	29418	32852	
349	0	36640	29736	32793	
350	0	35703	28940	32999	
351	0	36314	29380	32826	
352	0	36354	29536	32866	
353	0	36218	29255	32981	
354	0	36306	29425	32924	
355	0	36224	29760	32820	
356	0	36164	29191	32978	
357	0	36257	29751	32818	
358	0	36280	29449	32903	
359	0	36292	29592	32856	
360	0	36232	29606	32888	
361	0	36260	29543	32884	
362	0	36268	29540	32868	
363	0	36272	29511	32880	
364	0	36164	29612	32828	
365	0	35946	29813	32834	
366	0	35738	29731	32992	
367	0	36060	29588	32848	
368	0	36688	29549	32830	
369	0	37620	28970	32845	
370	0	36624	29452	32772	
371	0	36359	29466	32796	
372	0	36140	29483	32791	
373	0	36372	29523	32863	
374	0	37100	29171	32830	
375	0	36452	29031	32811	
376	0	36084	29776	32578	
377	0	36172	29600	33213	
378	0	35642	29759	33198	
379	0	35382	30215	32952	
380	0	36488	29290	32948	
381	0	36178	29629	32894	
382	0	36412	29842	32719	
383	0	36204	29628	32740	
384	0	35960	29143	33010	
385	0	36436	29178	32766	
386	0	36388	29366	32839	
387	0	36300	29464	32825	
388	0	36293	29544	32874	
389	0	36340	29425	32865	
390	0	36178	29630	32775	
391	0	36256	29511	32868	
392	0	36566	29318	32832	
393	0	36226	29432	32944	
394	0	36768	29607	33090	
395	0	36226	29574	32877	
396	0	36196	29548	32856	
397	0	36266	29472	32893	
398	0	36252	29490	32896	
399	0	36192	29583	32902	
400	0	36224	29474	32869	
401	0	36196	29549	32844	
402	0	36274	29368	32894	
403	0	36248	29504	32864	
404	0	36128	29695	32808	
405	0	35877	29665	32766	
406	0	36176	29497	32925	
407	0	36040	29465	32751	
408	0	36946	29300	32759	
409	0	36320	29434	32816	
410	0	36252	29475	32808	
411	0	36290	29457	32829	
412	0	36276	29444	32820	
413	0	36128	29126	32984	
414	0	36580	29928	32624	
415	0	36192	29022	33050	
416	0	36359	29026	33060	
417	0	36346	29982	32738	
418	0	36544	29370	32796	
419	0	36040	29866	32775	
420	0	36224	29454	32910	
421	0	36218	29459	32900	
422	0	36188	29484	32903	
423	0	36226	29462	32873	
424	0	36212	29447	32872	
425	0	36231	29432	32884	
426	0	36230	29444	32873	
427	0	36231	29446	32880	
428	0	36230	29447	32872	
429	0	36224	29460	32875	
430	0	36192	29483	32873	
431	0	36196	29470	32888	
432	0	36226	29425	32863	
433	0	36244	29436	32856	
434	0	36232	29298	32896	
435	0	36348	29400	32816	
436	0	36432	29343	32942	
437	0	36264	29312	32912	
438	0	36152	29511	32881	
439	0	36120	29543	32898	
440	0	36200	29447	32878	
441	0	36186	29526	32875	
442	0	36224	29439	32878	
443	0	36200	29478	32888	
444	0	36256	29407	32896	
445	0	36232	29428	32872	
446	0	36226	29433	32895	
447	0	36208	29447	32888	
448	0	36242	29439	32888	
449	0	36226	29452	32898	
450	0	36204	29447	32914	
451	0	36200	29460	32903	
452	0	36182	29478	32883	
453	0	36250	29417	32880	
454	0	36226	29439	32884	
455	0	36224	29447	32914	
456	0	36192	29456	32896	
457	0	36196	29463	32921	
458	0	36180	29492	32894	
459	0	36260	29410	32893	
460	0	36200	29447	32903	
461	0	36208	29456	32903	
462	0	36188	29476	32926	
463	0	36182	29460	32919	
464	0	36278	29446	32888	
465	0	36250	29399	32871	
466	0	36210	29430	32871	
467	0	36228	29458	32856	
468	0	36212	29428	32893	
469	0	36204	29435	32906	
470	0	36204	29444	32891	
471	0	36236	29439	32872	
472	0	36226	29442	32860	
473	0	36201	29454	32890	
474	0	36208	29460	32903	
475	0	36216	29471	32903	
476	0	36204	29447	32898	
477	0	36200	29458	32902	
478	0	36192	29450	32894	
479	0	36228	29432	32884	
480	0	36204	29446	32877	
481	0	36208	29447	32860	
482	0	36214	29440	32855	
483	0	36166	29440	32903	
484	0	36224	29412	32899	
485	0	36188	29403	32865	
486	0	36230	29379	32870	
487	0	36208	29408	32869	
488	0	36212	29429	32871	
489	0	36296	28720	32919	
490	0	36112	29730	32788	
491	0	36368	28860	33024	
492	0	36106	29912	32702	
493	0	36168	29276	33004	
494	0	36192	29564	32890	
495	0	36167	29511	32928	
496	0	36242	29455	32903	
497	0	36224	29465	32920	
498	0	36200	29462	32883	
499	0	36212	29456	32893	
500	0	36197	29490	32903	
501	0	36216	29453	32878	
502	0	36216	29460	32902	
503	0	36230	29440	32881	
504	0	36214	29476	32879	
505	0	36230	29402	32855	
506	0	36222	29463	32878	
507	0	36218	29432	32866	
508	0	36228	29439	32884	
509	0	36206	29395	32890	
510	0	36230	29430	32856	
511	0	36204	29468	32871	
512	0	36197	29478	32844	
513	0	36208	29455	32863	
514	0	36216	29456	32875	
515	0	36226	29434	32877	
516	0	36208	29462	32864	
517	0	36224	29467	32871	
518	0	36250	29407	32894	
519	0	36226	29530	32832	
520	0	36202	29386	32892	
521	0	36240	29495	32874	
522	0	36176	29469	32902	
523	0	36224	29484	32854	
524	0	36204	29454	32847	
525	0	36226	29445	32845	
526	0	36235	29442	32856	
527	0	35772	29037	33172	
528	0	36184	29484	32833	
529	0	36240	29435	32825	
530	0	36336	29698	32745	
531	0	36376	29503	32816	
532	0	36251	29398	32871	
533	0	36252	29473	32762	
534	0	36152	29400	32863	
535	0	36212	29437	32851	
536	0	36205	29447	32820	
537	0	36212	29417	32882	
538	0	36248	29456	32850	
539	0	36498	29417	32814	
540	0	35847	29352	32864	
541	0	36192	29499	32839	
542	0	36224	29432	32835	
543	0	36226	29442	32864	
544	0	36216	29447	32822	
545	0	36220	29447	32848	
546	0	36218	29441	32869	
547	0	36238	29426	32877	
548	0	36232	29437	32869	
549	0	36320	29366	32882	
550	0	36069	29526	32892	
551	0	36242	29419	32864	
552	0	36222	29426	32858	
553	0	36244	29517	32860	
554	0	36236	29406	32859	
555	0	36320	29379	32870	
556	0	36200	29644	32829	
557	0	36172	29500	32946	
558	0	36210	29464	32919	
559	0	36188	29464	32903	
560	0	36200	29443	32896	
561	0	36196	29444	32888	
562	0	36218	29418	32851	
563	0	36188	29428	32891	
564	0	36218	29419	32856	
565	0	36200	29440	32868	
566	0	36196	29435	32890	
567	0	36216	29443	32872	
568	0	36188	29454	32864	
569	0	36216	29446	32898	
570	0	36224	29429	32870	
571	0	36200	29443	32885	
572	0	36216	29412	32888	
573	0	36184	29469	32891	
574	0	36176	29472	32876	
575	0	36231	29416	32870	
576	0	36184	29442	32850	
577	0	36212	29443	32890	
578	0	36180	29447	32884	
579	0	36208	29430	32887	
580	0	36220	29426	32870	
581	0	36188	29460	32873	
582	0	36192	29444	32859	
583	0	36218	29437	32875	
584	0	36208	29443	32878	
585	0	36228	29422	32891	
586	0	36196	29428	32877	
587	0	36200	29451	32863	
588	0	36206	29432	32885	
589	0	36208	29439	32888	
590	0	36204	29438	32860	
591	0	36196	29441	32866	
592	0	36200	29466	32896	
593	0	36208	29440	32914	
594	0	36210	29438	32896	
595	0	36208	29428	32898	
596	0	36178	29473	32910	
597	0	36204	29445	32903	
598	0	36200	29447	32878	
599	0	36200	29461	32885	
600	0	36200	29440	32924	
601	0	36230	29431	32834	
602	0	36200	29399	32903	
603	0	36196	29442	32880	
604	0	36226	29416	32903	
605	0	36201	29436	32875	
606	0	36208	29434	32867	
607	0	36208	29437	32877	
608	0	36204	29435	32852	
609	0	36210	29456	32878	
610	0	36220	29439	32864	
611	0	36204	29410	32860	
612	0	36224	29402	32867	
613	0	36210	29399	32839	
614	0	36256	29485	32838	
615	0	36216	29463	32903	
616	0	36392	29314	32961	
617	0	36039	29557	32902	
618	0	36034	29546	32903	
619	0	36248	29425	32895	
620	0	36192	29488	32860	
621	0	36242	29426	32900	
622	0	36216	29440	32873	
623	0	36212	29474	32880	
624	0	36218	29454	32895	
625	0	36204	29458	32906	
626	0	36226	29447	32888	
627	0	36200	29436	32912	
628	0	36216	29444	32879	
629	0	36216	29459	32884	
630	0	36260	29412	32890	
631	0	36216	29425	32877	
632	0	36208	29460	32869	
633	0	36164	29504	32898	
634	0	36256	29458	32829	
635	0	36226	29437	32896	
636	0	36226	29447	32844	
637	0	36220	29460	32872	
638	0	36212	29453	32853	
639	0	36234	29437	32872	
640	0	36136	29511	32863	
641	0	36320	29338	32852	
642	0	36204	29440	32866	
643	0	36200	29462	32858	
644	0	36230	29423	32894	
645	0	36204	29442	32880	
646	0	36189	29478	32895	
647	0	36224	29436	32834	
648	0	36212	29422	32885	
649	0	36192	29461	32884	
650	0	36244	29536	32804	
651	0	36220	29443	32880	
652	0	36200	29416	32897	
653	0	36230	29425	32852	
654	0	36193	29468	32869	
655	0	36214	29449	32884	
656	0	36212	29436	32873	
657	0	36204	29458	32877	
658	0	36048	29350	32960	
659	0	36252	29407	32894	
660	0	36191	29435	32885	
661	0	36212	29420	32864	
662	0	36204	29439	32882	
663	0	36202	29439	32869	
664	0	36216	29444	32863	
665	0	36192	29454	32872	
666	0	36184	29447	32874	
667	0	36208	29428	32890	
668	0	36210	29432	32854	
669	0	36194	29456	32883	
670	0	36216	29420	32876	
671	0	36192	29442	32883	
672	0	36228	29424	32856	
673	0	36196	29447	32903	
674	0	36194	29462	32896	
675	0	36184	29440	32871	
676	0	36226	29419	32900	
677	0	36197	29426	32887	
678	0	36202	29452	32868	
679	0	36204	29444	32896	
680	0	36208	29446	32864	
681	0	36208	29447	32918	
682	0	36208	29435	32885	
683	0	36212	29439	32862	
684	0	36208	29438	32900	
685	0	36192	29447	32870	
686	0	36240	29414	32850	
687	0	36216	29444	32845	
688	0	36226	29426	32864	
689	0	36200	29442	32896	
690	0	36186	29463	32878	
691	0	36244	29396	32871	
692	0	36224	29436	32866	
693	0	36210	29426	32861	
694	0	36200	29432	32850	
695	0	36192	29464	32919	
696	0	36226	29419	32869	
697	0	36224	29435	32876	
698	0	36210	29444	32883	
699	0	36184	29439	32873	
700	0	36185	29460	32912	
701	0	36222	29420	32889	
702	0	36212	29415	32845	
703	0	36208	29414	32868	
704	0	36216	29436	32877	
705	0	36208	29450	32847	
706	0	36184	29456	32920	
707	0	36192	29468	32903	
708	0	36200	29446	32873	
709	0	36212	29447	32884	
710	0	36204	29432	32855	
711	0	36208	29438	32888	
712	0	36220	29441	32884	
713	0	36196	29434	32897	
714	0	36188	29442	32888	
715	0	36234	29425	32873	
716	0	36189	29442	32898	
717	0	36200	29437	32863	
718	0	36196	29456	32876	
719	0	36234	29422	32850	
720	0	36204	29428	32866	
721	0	36226	29435	32865	
722	0	36186	29454	32849	
723	0	36196	29458	32881	
724	0	36210	29436	32868	
725	0	36210	29432	32836	
726	0	36208	29428	32868	
727	0	36181	29469	32884	
728	0	36160	29480	32912	
729	0	36208	29460	32902	
730	0	36192	29447	32876	
731	0	36209	29430	32862	
732	0	36192	29433	32876	
733	0	36232	29420	32864	
734	0	36218	29409	32856	
735	0	36212	29434	32876	
736	0	36192	29456	32873	
737	0	36218	29442	32898	
738	0	36196	29470	32876	
739	0	36216	29447	32874	
740	0	36212	29438	32884	
741	0	36200	29436	32882	
742	0	36218	29433	32890	
743	0	36197	29450	32871	
744	0	36212	29444	32903	
745	0	36192	29446	32913	
746	0	36196	29434	32890	
747	0	36212	29431	32891	
748	0	36210	29428	32858	
749	0	36204	29459	32864	
750	0	36226	29424	32857	
751	0	36188	29445	32892	
752	0	36216	29429	32874	
753	0	36206	29435	32870	
754	0	36218	29424	32868	
755	0	36201	29439	32839	
756	0	36188	29436	32874	
757	0	36202	29454	32858	
758	0	36220	29444	32866	
759	0	36204	29447	32890	
760	0	36196	29440	32867	
761	0	36212	29432	32856	
762	0	36217	29410	32862	
763	0	36200	29443	32883	
764	0	36193	29438	32845	
765	0	36192	29458	32896	
766	0	36206	29447	32875	
767	0	36208	29422	32872	
768	0	36220	29439	32880	
769	0	36208	29446	32903	
770	0	36189	29456	32900	
771	0	36196	29438	32884	
772	0	36200	29462	32854	
773	0	36202	29432	32888	
774	0	36256	29407	32775	
775	0	36196	29447	32860	
776	0	36168	29466	32824	
777	0	36234	29401	32867	
778	0	36218	29426	32854	
779	0	36204	29442	32851	
780	0	36204	29442	32850	
781	0	36192	29440	32873	
782	0	36204	29440	32868	
783	0	36168	29417	32875	
784	0	36202	29443	32854	
785	0	36200	29442	32864	
786	0	36172	29433	32881	
787	0	36196	29425	32836	
788	0	36232	29425	32848	
789	0	36200	29428	32883	
790	0	36202	29431	32866	
791	0	36200	29416	32856	
792	0	36200	29434	32848	
793	0	36184	29428	32864	
794	0	36216	29414	32881	
795	0	36196	29372	32861	
796	0	36256	29429	32802	
797	0	36172	29440	32874	
798	0	36182	29456	32883	
799	0	36172	29458	32900	
800	0	36180	29447	32898	
801	0	36178	29442	32884	
802	0	36204	29416	32871	
803	0	36224	29411	32846	
804	0	36196	29402	32878	
805	0	36212	29414	32876	
806	0	36180	29439	32881	
807	0	36196	29436	32857	
808	0	36196	29432	32872	
809	0	36192	29434	32892	
810	0	36176	29444	32903	
811	0	36168	29441	32878	
812	0	36200	29439	32869	
813	0	36196	29434	32861	
814	0	36208	29416	32862	
815	0	36200	29413	32835	
816	0	36216	29410	32850	
817	0	36192	29428	32864	
818	0	36208	29427	32862	
819	0	36224	29420	32861	
820	0	36178	29419	32881	
821	0	36208	29444	32874	
822	0	36181	29440	32878	
823	0	36196	29436	32883	
824	0	36216	29422	32839	
825	0	36180	29437	32849	
826	0	36196	29414	32838	
827	0	36204	29439	32839	
828	0	36224	29399	32880	
829	0	36196	29434	32860	
830	0	36194	29429	32883	
831	0	36212	29435	32871	
832	0	36216	29427	32828	
833	0	36218	29418	32860	
834	0	36212	29429	32859	
835	0	36202	29424	32862	
836	0	36214	29434	32839	
837	0	36206	29442	32868	
838	0	36196	29428	32889	
839	0	36200	29425	32886	
840	0	36192	29414	32886	
841	0	36205	29436	32872	
842	0	36212	29428	32884	
843	0	36196	29409	32876	
844	0	36200	29408	32898	
845	0	36220	29424	32865	
846	0	36188	29435	32892	
847	0	36208	29432	32876	
848	0	36196	29440	32873	
849	0	36190	29434	32856	
850	0	36181	29447	32898	
851	0	36212	29437	32884	
852	0	36224	29426	32877	
853	0	36200	29423	32874	
854	0	36182	29426	32873	
855	0	36201	29444	32866	
856	0	36212	29416	32868	
857	0	36220	29404	32862	
858	0	36184	29436	32880	
859	0	36216	29419	32896	
860	0	36200	29414	32870	
861	0	36190	29436	32892	
862	0	36196	29437	32876	
863	0	36197	29427	32890	
864	0	36202	29432	32856	
865	0	36208	29432	32903	
866	0	36208	29419	32862	
867	0	36176	29447	32869	
868	0	35232	28516	33341	
869	0	36544	29634	32751	
870	0	36178	29393	32874	
871	0	36226	29429	32928	
872	0	36308	29502	32872	
873	0	36206	29434	32915	
874	0	36192	29421	32912	
875	0	36188	29414	32914	
876	0	36200	29412	32932	
877	0	36172	29408	32901	
878	0	36188	29416	32903	
879	0	36196	29408	32908	
880	0	36196	29414	32910	
881	0	36172	29423	32903	
882	0	36168	28969	33000	
883	0	36684	29286	32912	
884	0	36212	29895	32754	
885	0	36144	29481	32960	
886	0	36196	29432	32916	
887	0	36192	29408	32900	
888	0	36192	29414	32920	
889	0	36172	29415	32928	
890	0	36182	29428	32900	
891	0	36149	29428	32928	
892	0	36182	29428	32912	
893	0	36160	29421	32896	
894	0	36188	29398	32903	
895	0	36176	29453	32852	
896	0	36184	29415	32893	
897	0	36160	29467	32912	
898	0	36176	29412	32878	
899	0	36224	29373	32860	
900	0	36213	29385	32858	
901	0	36172	29430	32858	
902	0	36208	29407	32839	
903	0	36188	29416	32856	
904	0	36184	29424	32864	
905	0	36192	29416	32852	
906	0	36178	29424	32856	
907	0	36176	29408	32857	
908	0	36192	29426	32856	
909	0	36180	29415	32848	
910	0	36144	29464	32846	
911	0	36196	29386	32846	
912	0	36226	29396	32871	
913	0	36181	29414	32858	
914	0	36180	29422	32872	
915	0	36168	29419	32836	
916	0	36196	29408	32858	
917	0	36176	29426	32848	
918	0	36188	29404	32838	
919	0	36181	29409	32848	
920	0	36180	29410	32832	
921	0	36181	29408	32834	
922	0	36168	29430	32832	
923	0	36176	29422	32828	
924	0	36230	29446	32820	
925	0	36188	29447	32810	
926	0	36058	29332	33002	
927	0	36240	29346	32837	
928	0	36148	29477	32796	
929	0	36214	29393	32806	
930	0	36218	29412	32786	
931	0	36206	29360	32818	
932	0	36210	29306	32791	
933	0	36188	29394	32797	
934	0	36186	29412	32807	
935	0	36175	29436	32814	
936	0	36184	29480	32775	
937	0	36240	29524	32799	
938	0	36148	29231	32892	
939	0	36120	29319	32839	
940	0	36188	29307	32839	
941	0	36090	29368	32866	
942	0	36240	29487	32775	
943	0	36064	29415	32838	
944	0	36178	29407	32848	
945	0	36192	29424	32862	
946	0	36188	29432	32820	
947	0	36200	29426	32834	
948	0	36214	29412	32832	
949	0	36196	29416	32825	
950	0	36216	29408	32804	
951	0	36208	29421	32800	
952	0	36216	29408	32825	
953	0	36200	29403	32808	
954	0	36206	29425	32786	
955	0	36200	29415	32820	
956	0	36181	29478	32874	
957	0	36172	29434	32826	
958	0	36214	29436	32833	
959	0	36190	29430	32827	
960	0	36192	29424	32826	
961	0	36192	29420	32836	
962	0	36192	29434	32806	
963	0	36216	29416	32816	
964	0	36082	29540	32764	
965	0	36436	29092	32960	
966	0	36224	29376	32793	
967	0	36164	29419	32823	
968	0	36196	29413	32806	
969	0	36176	29429	32775	
970	0	36200	29434	32809	
971	0	36181	29408	32818	
972	0	36184	29422	32802	
973	0	36168	29403	32820	
974	0	36192	29411	32816	
975	0	36176	29440	32831	
976	0	36184	29428	32814	
977	0	36188	29418	32800	
978	0	36168	29354	32790	
979	0	36239	29467	32792	
980	0	36152	29259	32827	
981	0	36200	29431	32793	
982	0	36181	29432	32832	
983	0	36192	29369	32795	
984	0	36180	29414	32808	
985	0	36172	29439	32810	
986	0	36208	29415	32796	
987	0	36200	29410	32789	
988	0	36196	29414	32775	
989	0	36176	29420	32812	
990	0	36192	29378	32808	
991	0	36162	29466	32808	
992	0	36188	29469	32793	
993	0	36176	29416	32832	
994	0	36184	29414	32831	
995	0	36216	29383	32826	
996	0	36172	29431	32824	
997	0	36180	29408	32854	
998	0	36184	29415	32834	
999	0	36160	29454	32839	
1000	0	36200	29413	32816	
1001	0	36186	29424	32828	
1002	0	36212	29344	32791	
1003	0	36180	29447	32802	
1004	0	36208	29411	32800	
1005	0	36165	29389	32816	
1006	0	36188	29422	32773	
1007	0	36484	29720	32694	
1008	0	36140	29383	32830	
1009	0	36169	29383	32800	
1010	0	36092	29278	32864	
1011	0	36236	29446	32769	
1012	0	36178	29408	32796	
1013	0	36178	29420	32820	
1014	0	36176	29425	32822	
1015	0	36200	29419	32814	
1016	0	36181	29437	32834	
1017	0	36200	29413	32846	
1018	0	36180	29417	32824	
1019	0	36188	29414	32794	
1020	0	36184	29435	32815	
1021	0	36192	29413	32822	
1022	0	36192	29420	32788	
1023	0	36176	29428	32821	
1024	0	36204	29399	32816	
1025	0	36184	29432	32838	
1026	0	36181	29442	32808	
1027	0	36196	29428	32825	
1028	0	36196	29425	32822	
1029	0	36192	29424	32812	
1030	0	36201	29413	32813	
1031	0	36186	29398	32800	
1032	0	36196	29419	32800	
1033	0	36188	29413	32824	
1034	0	36178	29417	32826	
1035	0	36194	29428	32820	
1036	0	36192	29417	32806	
1037	0	36188	29434	32806	
1038	0	36208	29393	32793	
1039	0	36200	29408	32800	
1040	0	36184	29425	32812	
1041	0	36188	29430	32775	
1042	0	36196	29439	32824	
1043	0	36174	29414	32814	
1044	0	36210	29415	32808	
1045	0	36192	29420	32798	
1046	0	36188	29458	32775	
1047	0	36180	29421	32827	
1048	0	36204	29438	32828	
1049	0	36192	29411	32804	
1050	0	36204	29408	32800	
1051	0	36196	29403	32797	
1052	0	36196	29403	32820	
1053	0	36184	29422	32822	
1054	0	36182	29428	32809	
1055	0	36188	29422	32806	
1056	0	36212	29408	32809	
1057	0	36196	29420	32815	
1058	0	36208	29432	32813	
1059	0	36200	29421	32792	
1060	0	36188	29435	32804	
1061	0	36201	29404	32807	
1062	0	36208	29418	32838	
1063	0	36196	29454	32822	
1064	0	36184	29390	32804	
1065	0	36204	29427	32802	
1066	0	36098	29170	32871	
1067	0	36208	29430	32775	
1068	0	36180	29408	32799	
1069	0	36196	29434	32774	
1070	0	36208	29413	32812	
1071	0	36192	29438	32786	
1072	0	36184	29439	32790	
1073	0	36192	29417	32818	
1074	0	36198	29436	32826	
1075	0	36192	29422	32818	
1076	0	36208	29416	32808	
1077	0	36192	29415	32824	
1078	0	36192	29430	32812	
1079	0	36189	29446	32795	
1080	0	36200	29416	32801	
1081	0	36184	29432	32811	
1082	0	36192	29436	32836	
1083	0	36196	29432	32832	
1084	0	36212	29416	32799	
1085	0	36193	29414	32775	
1086	0	36204	29415	32812	
1087	0	36212	29478	32800	
1088	0	36196	29359	32808	
1089	0	36197	29434	32830	
1090	0	36200	29440	32832	
1091	0	36168	29465	32827	
1092	0	36192	29436	32804	
1093	0	36192	29430	32775	
1094	0	36202	29410	32812	
1095	0	36196	29422	32826	
1096	0	36194	29432	32839	
1097	0	36204	29423	32804	
1098	0	36204	29419	32807	
1099	0	36204	29424	32796	
1100	0	36192	29433	32814	
1101	0	36176	29447	32798	
1102	0	36196	29432	32834	
1103	0	36208	29420	32804	
1104	0	36204	29416	32800	
1105	0	36208	29424	32775	
1106	0	36184	29441	32796	
1107	0	36190	29440	32824	
1108	0	36196	29430	32817	
1109	0	36200	29421	32818	
1110	0	36208	29416	32821	
1111	0	36192	29426	32810	
1112	0	36178	29374	32822	
1113	0	36208	29432	32816	
1114	0	36200	29425	32807	
1115	0	36208	29428	32819	
1116	0	36192	29432	32809	
1117	0	36196	29410	32802	
1118	0	36188	29404	32811	
1119	0	36184	29444	32816	
1120	0	36216	29416	32811	
1121	0	36196	29424	32837	
1122	0	36196	29412	32839	
1123	0	36192	29437	32792	
1124	0	36182	29443	32844	
1125	0	36196	29428	32844	
1126	0	36176	29430	32813	
1127	0	36196	29414	32824	
1128	0	36193	29415	32826	
1129	0	36208	29414	32824	
1130	0	36200	29412	32819	
1131	0	36192	29414	32804	
1132	0	36172	29454	32831	
1133	0	36188	29447	32842	
1134	0	36212	29416	32816	
1135	0	36200	29417	32818	
1136	0	36186	29432	32837	
1137	0	36180	29439	32792	
1138	0	36180	29468	32809	
1139	0	36202	29455	32803	
1140	0	36194	29416	32832	
1141	0	36196	29444	32812	
1142	0	36183	29472	32808	
1143	0	36178	29440	32841	
1144	0	36218	29397	32804	
1145	0	36210	29419	32800	
1146	0	36212	29428	32815	
1147	0	36196	29431	32771	
1148	0	36199	29434	32805	
1149	0	36208	29418	32808	
1150	0	36200	29432	32795	
1151	0	36218	29397	32775	
1152	0	36200	29428	32789	
1153	0	36208	29432	32808	
1154	0	36212	29421	32771	
1155	0	36200	29418	32808	
1156	0	36202	29416	32807	
1157	0	36182	29453	32797	
1158	0	36176	29436	32788	
1159	0	36216	29417	32775	
1160	0	36204	29421	32800	
1161	0	36200	29427	32816	
1162	0	36188	29439	32809	
1163	0	36192	29447	32819	
1164	0	36200	29461	32811	
1165	0	36200	29432	32798	
1166	0	36208	29395	32775	
1167	0	36192	29417	32786	
1168	0	36216	29420	32800	
1169	0	36196	29416	32811	
1170	0	36188	29432	32792	
1171	0	36200	29410	32816	
1172	0	36192	29447	32808	
1173	0	36192	29413	32830	
1174	0	36204	29488	32775	
1175	0	36192	29424	32814	
1176	0	36196	29425	32828	
1177	0	36204	29431	32784	
1178	0	36184	29462	32815	
1179	0	36208	29417	32837	
1180	0	36212	29425	32822	
1181	0	36204	29416	32819	
1182	0	36188	29420	32810	
1183	0	36184	29440	32830	
1184	0	36193	29436	32802	
1185	0	36214	29410	32805	
1186	0	36224	29400	32806	
1187	0	36196	29427	32775	
1188	0	36192	29466	32860	
1189	0	36196	29447	32827	
1190	0	36210	29427	32803	
1191	0	36194	29424	32816	
1192	0	36208	29424	32802	
1193	0	36196	29432	32808	
1194	0	36212	29414	32807	
1195	0	36188	29409	32816	
1196	0	36180	29432	32824	
1197	0	36172	29417	32828	
1198	0	36192	29453	32808	
1199	0	36201	29431	32818	
1200	0	36216	29421	32803	
1201	0	36196	29425	32819	
1202	0	36205	29425	32816	
1203	0	36188	29438	32810	
1204	0	36220	29408	32797	
1205	0	36200	29418	32799	
1206	0	36204	29413	32805	
1207	0	36208	29423	32775	
1208	0	36202	29460	32799	
1209	0	36200	29418	32792	
1210	0	36188	29432	32831	
1211	0	36192	29417	32800	
1212	0	36210	29434	32824	
1213	0	36200	29434	32802	
1214	0	36224	29394	32775	
1215	0	36208	29414	32784	
1216	0	36200	29423	32808	
1217	0	36178	29458	32794	
1218	0	36208	29425	32808	
1219	0	36200	29434	32825	
1220	0	36204	29433	32812	
1221	0	36200	29416	32775	
1222	0	36200	29434	32786	
1223	0	36216	29423	32793	
1224	0	36204	29431	32806	
1225	0	36197	29416	32775	
1226	0	36198	29435	32802	
1227	0	36192	29436	32814	
1228	0	36192	29446	32794	
1229	0	36216	29422	32801	
1230	0	36216	29418	32775	
1231	0	36208	29428	32762	
1232	0	36196	29425	32800	
1233	0	36200	29430	32784	
1234	0	36189	29442	32780	
1235	0	36205	29415	32820	
1236	0	36204	29425	32816	
1237	0	36188	29420	32822	
1238	0	36206	29430	32760	
1239	0	36190	29432	32775	
1240	0	36185	29450	32815	
1241	0	36216	29419	32827	
1242	0	36181	29447	32808	
1243	0	36192	29435	32792	
1244	0	36196	29436	32775	
1245	0	36216	29412	32809	
1246	0	36208	29433	32802	
1247	0	36212	29426	32798	
1248	0	36204	29440	32807	
1249	0	36184	29447	32808	
1250	0	36200	29438	32807	
1251	0	36185	29423	32770	
1252	0	36196	29434	32799	
1253	0	36218	29420	32775	
1254	0	36196	29425	32832	
1255	0	36202	29408	32827	
1256	0	36184	29428	32797	
1257	0	36190	29431	32814	
1258	0	36188	29442	32789	
1259	0	36190	29423	32822	
1260	0	36196	29432	32793	
1261	0	36196	29432	32788	
1262	0	36208	29425	32775	
1263	0	36194	29418	32800	
1264	0	36188	29419	32785	
1265	0	36196	29432	32775	
1266	0	36196	29439	32816	
1267	0	36200	29452	32775	
1268	0	36196	29438	32788	
1269	0	36064	29754	32608	
1270	0	36300	29141	32792	
1271	0	36220	29435	32741	
1272	0	36208	29429	32775	
1273	0	36230	29414	32775	
1274	0	36200	29436	32764	
1275	0	36220	29432	32775	
1276	0	36216	29418	32792	
1277	0	36208	29489	32753	
1278	0	36204	29422	32775	
1279	0	36200	29388	32792	
1280	0	36192	29476	32743	
1281	0	36188	29464	32802	
1282	0	36188	29433	32794	
1283	0	36193	29455	32786	
1284	0	36220	29419	32820	
1285	0	36210	29428	32760	
1286	0	36208	29418	32796	
1287	0	36200	29435	32775	
1288	0	36196	29453	32774	
1289	0	36200	29440	32794	
1290	0	36202	29446	32814	
1291	0	36188	29437	32791	
1292	0	36196	29440	32802	
1293	0	36204	29452	32802	
1294	0	36208	29432	32819	
1295	0	36204	29438	32799	
1296	0	36218	29446	32816	
1297	0	36201	29440	32824	
1298	0	36194	29446	32835	
1299	0	36200	29436	32816	
1300	0	36213	29446	32799	
1301	0	36208	29436	32802	
1302	0	36212	29428	32812	
1303	0	36202	29440	32825	
1304	0	36208	29429	32806	
1305	0	36208	29449	32791	
1306	0	36208	29414	32802	
1307	0	36201	29441	32775	
1308	0	36192	29458	32814	
1309	0	36072	29574	32762	
1310	0	36232	29364	32775	
1311	0	36185	29426	32775	
1312	0	36188	29447	32796	
1313	0	36214	29418	32768	
1314	0	36196	29431	32775	
1315	0	36188	29431	32768	
1316	0	36212	29429	32810	
1317	0	36172	29438	32820	
1318	0	36196	29431	32808	
1319	0	36196	29419	32792	
1320	0	36196	29444	32820	
1321	0	36183	29447	32787	
1322	0	36212	29404	32795	
1323	0	36208	29417	32775	
1324	0	36202	29431	32762	
1325	0	36188	29401	32822	
1326	0	36200	29490	32796	
1327	0	36188	29428	32784	
1328	0	36200	29422	32792	
1329	0	36182	29416	32797	
1330	0	36208	29444	32806	
1331	0	36176	29452	32806	
1332	0	36167	29453	32827	
1333	0	36208	29419	32772	
1334	0	36216	29413	32804	
1335	0	36200	29421	32824	
1336	0	36204	29441	32836	
1337	0	36216	29446	32796	
1338	0	36212	29420	32788	
1339	0	36216	29404	32789	
1340	0	36200	29428	32808	
1341	0	36196	29433	32820	
1342	0	36188	29439	32839	
1343	0	36186	29432	32828	
1344	0	36196	29416	32821	
1345	0	36218	29458	32822	
1346	0	36188	29395	32807	
1347	0	36192	29430	32775	
1348	0	36188	29411	32817	
1349	0	36182	29431	32808	
1350	0	36196	29433	32790	
1351	0	36192	29421	32786	
1352	0	36192	29422	32804	
1353	0	36208	29430	32790	
1354	0	36208	29424	32794	
1355	0	36200	29424	32775	
1356	0	36188	29434	32808	
1357	0	36196	29413	32804	
1358	0	36200	29420	32768	
1359	0	36176	29620	32688	
1360	0	36224	29378	32815	
1361	0	36202	29431	32775	
1362	0	36194	29447	32804	
1363	0	36204	29434	32792	
1364	0	36192	29452	32775	
1365	0	36216	29421	32758	
1366	0	36204	29425	32765	
1367	0	36192	29442	32794	
1368	0	36208	29435	32772	
1369	0	36196	29438	32775	
1370	0	36188	29448	32775	
1371	0	36204	29431	32775	
1372	0	36196	29440	32775	
1373	0	36200	29437	32775	
1374	0	36208	29434	32762	
1375	0	36197	29426	32754	
1376	0	36226	29410	32775	
1377	0	36204	29424	32775	
1378	0	36212	29436	32792	
1379	0	36190	29441	32796	
1380	0	36192	29443	32775	
1381	0	36196	29447	32788	
1382	0	36196	29418	32775	
1383	0	36216	29432	32756	
1384	0	36188	29464	32756	
1385	0	36220	29408	32775	
1386	0	36216	29418	32760	
1387	0	36208	29446	32775	
1388	0	36210	29445	32768	
1389	0	36196	29446	32750	
1390	0	36208	29442	32790	
1391	0	36184	29444	32789	
1392	0	36167	29627	32740	
1393	0	36226	29370	32768	
1394	0	36200	29450	32757	
1395	0	36210	29459	32743	
1396	0	36160	29575	32742	
1397	0	36192	29411	32705	
1398	0	36248	29405	32758	
1399	0	36216	29456	32742	
1400	0	36212	29398	32769	
1401	0	36200	29442	32735	
1402	0	36212	29421	32754	
1403	0	36208	29439	32759	
1404	0	36210	29473	32792	
1405	0	36192	29452	32775	
1406	0	36210	29424	32768	
1407	0	36200	29430	32775	
1408	0	36204	29423	32752	
1409	0	36210	29432	32775	
1410	0	36196	29465	32798	
1411	0	36196	29440	32786	
1412	0	36200	29447	32791	
1413	0	36205	29444	32772	
1414	0	36184	29441	32788	
1415	0	36224	29424	32752	
1416	0	36220	29428	32760	
1417	0	36200	29440	32760	
1418	0	36216	29434	32775	
1419	0	36208	29462	32784	
1420	0	36226	29430	32794	
1421	0	36212	29436	32775	
1422	0	36210	29433	32810	
1423	0	36204	29445	32775	
1424	0	36208	29460	32758	
1425	0	36208	29419	32793	
1426	0	36212	29423	32787	
1427	0	36212	29436	32804	
1428	0	36196	29450	32775	
1429	0	36184	29458	32814	
1430	0	36212	29414	32788	
1431	0	36196	29452	32802	
1432	0	36208	29463	32790	
1433	0	36196	29462	32768	
1434	0	36216	29433	32775	
1435	0	36231	29432	32790	
1436	0	36208	29438	32771	
1437	0	36196	29437	32740	
1438	0	36212	29440	32775	
1439	0	36204	29441	32792	
1440	0	36212	29454	32807	
1441	0	36212	29428	32802	
1442	0	36196	29462	32775	
1443	0	36216	29418	32758	
1444	0	36220	29418	32775	
1445	0	36216	29425	32775	
1446	0	36212	29424	32800	
1447	0	36208	29440	32775	
1448	0	36198	29442	32796	
1449	0	36204	29440	32768	
1450	0	36216	29456	32805	
1451	0	36208	29447	32764	
1452	0	36208	29439	32754	
1453	0	36208	29431	32787	
1454	0	36226	29436	32769	
1455	0	36196	29452	32792	
1456	0	36200	29444	32766	
1457	0	36198	29436	32769	
1458	0	36210	29438	32787	
1459	0	36208	29443	32744	
1460	0	36216	29446	32772	
1461	0	36204	29425	32772	
1462	0	36232	29520	32672	
1463	0	36189	29446	32803	
1464	0	36224	29418	32750	
1465	0	36208	29431	32775	
1466	0	36216	29443	32775	
1467	0	36192	29453	32754	
1468	0	36198	29452	32766	
1469	0	36204	29447	32764	
1470	0	36198	29456	32797	
1471	0	36196	29436	32768	
1472	0	36220	29447	32749	
1473	0	36226	29426	32764	
1474	0	36208	29446	32768	
1475	0	36200	29438	32775	
1476	0	36218	29447	32740	
1477	0	36204	29456	32763	
1478	0	36224	29438	32748	
1479	0	36204	29438	32775	
1480	0	36208	29442	32768	
1481	0	36189	29449	32773	
1482	0	36200	29443	32775	
1483	0	36220	29511	32746	
1484	0	36152	29174	32844	
1485	0	36205	29434	32775	
1486	0	36208	29444	32760	
1487	0	36193	29467	32796	
1488	0	36216	29460	32754	
1489	0	36184	29420	32775	
1490	0	36201	29452	32758	
1491	0	36212	29421	32771	
1492	0	36222	29431	32736	
1493	0	36200	29444	32775	
1494	0	36216	29437	32762	
1495	0	36212	29439	32802	
1496	0	36212	29464	32756	
1497	0	36201	29466	32773	
1498	0	36218	29440	32766	
1499	0	36212	29456	32791	
1500	0	36224	29437	32775	
1501	0	36224	29437	32787	
1502	0	36206	29453	32804	
1503	0	36231	29422	32775	
1504	0	36216	29432	32784	
1505	0	36226	29432	32790	
1506	0	36201	29447	32815	
1507	0	36212	29534	32775	
1508	0	36204	29440	32794	
1509	0	36201	29456	32810	
1510	0	36216	29438	32816	
1511	0	36202	29443	32802	
1512	0	36204	29459	32836	
1513	0	36188	29457	32808	
1514	0	36236	29449	32804	
1515	0	36204	29453	32813	
1516	0	36212	29447	32798	
1517	0	36216	29429	32812	
1518	0	36216	29434	32820	
1519	0	36210	29440	32794	
1520	0	36228	29429	32809	
1521	0	36216	29452	32791	
1522	0	36204	29446	32816	
1523	0	36202	29450	32816	
1524	0	36224	29440	32813	
1525	0	36216	29447	32829	
1526	0	36210	29447	32802	
1527	0	36226	29436	32790	
1528	0	36212	29447	32808	
1529	0	36196	29424	32828	
1530	0	36204	29422	32817	
1531	0	36226	29447	32756	
1532	0	36208	29461	32806	
1533	0	36208	29447	32838	
1534	0	36232	29436	32792	
1535	0	36226	29432	32801	
1536	0	36210	29453	32806	
1537	0	36208	29444	32806	
1538	0	36216	29459	32822	
1539	0	36212	29453	32807	
1540	0	36214	29453	32775	
1541	0	36224	29440	32829	
1542	0	36202	29426	32775	
1543	0	36240	29550	32760	
1544	0	36226	29417	32811	
1545	0	36205	29458	32758	
1546	0	36224	29456	32775	
1547	0	36212	29444	32772	
1548	0	36218	29464	32814	
1549	0	36252	29529	32796	
1550	0	36196	29418	32775	
1551	0	36236	29519	32790	
1552	0	36208	29457	32798	
1553	0	36232	29488	32774	
1554	0	36226	29366	32775	
1555	0	36228	29432	32803	
1556	0	36206	29465	32786	
1557	0	36224	29443	32806	
1558	0	36204	29466	32802	
1559	0	36197	29450	32810	
1560	0	36228	29436	32812	
1561	0	36208	29464	32801	
1562	0	36210	29447	32822	
1563	0	36234	29447	32773	
1564	0	36272	29614	32772	
1565	0	36252	29319	32803	
1566	0	36208	29455	32775	
1567	0	36200	29464	32807	
1568	0	36204	29463	32794	
1569	0	36204	29466	32813	
1570	0	36216	29447	32791	
1571	0	36216	29458	32797	
1572	0	36196	29550	32772	
1573	0	36240	29319	32796	
1574	0	36224	29442	32775	
1575	0	36204	29480	32763	
1576	0	36208	29437	32775	
1577	0	36236	29404	32794	
1578	0	36226	29446	32755	
1579	0	36228	29446	32745	
1580	0	36212	29457	32775	
1581	0	36216	29456	32790	
1582	0	36200	29475	32800	
1583	0	36208	29465	32796	
1584	0	36226	29468	32775	
1585	0	36231	29453	32804	
1586	0	36218	29452	32766	
1587	0	36244	29425	32775	
1588	0	36234	29442	32791	
1589	0	36216	29449	32775	
1590	0	36224	29458	32775	
1591	0	36216	29462	32775	
1592	0	36224	29456	32774	
1593	0	36212	29473	32752	
1594	0	36240	29452	32760	
1595	0	36232	29462	32758	
1596	0	36250	29447	32775	
1597	0	36232	29456	32772	
1598	0	36200	29472	32788	
1599	0	36208	29447	32793	
1600	0	36240	29446	32763	
1601	0	36218	29452	32774	
1602	0	36218	29446	32798	
1603	0	36212	29446	32775	
1604	0	36226	29452	32767	
1605	0	36208	29452	32758	
1606	0	36231	29447	32806	
1607	0	36210	29456	32763	
1608	0	36231	29466	32775	
1609	0	36208	29469	32760	
1610	0	36224	29459	32775	
1611	0	36224	29455	32775	
1612	0	36264	29397	32744	
1613	0	36216	29446	32766	
1614	0	36230	29464	32760	
1615	0	36208	29465	32788	
1616	0	36226	29456	32765	
1617	0	36222	29456	32775	
1618	0	36218	29449	32775	
1619	0	36226	29452	32752	
1620	0	36224	29453	32775	
1621	0	36212	29452	32775	
1622	0	36232	29442	32745	
1623	0	36210	29466	32768	
1624	0	36236	29446	32744	
1625	0	36230	29469	32773	
1626	0	36224	29460	32754	
1627	0	36226	29470	32752	
1628	0	36230	29451	32762	
1629	0	36216	29458	32748	
1630	0	36248	29456	32767	
1631	0	36224	29451	32773	
1632	0	36216	29458	32758	
1633	0	36248	29442	32736	
1634	0	36226	29455	32754	
1635	0	36224	29458	32736	
1636	0	36226	29452	32775	
1637	0	36240	29442	32739	
1638	0	36226	29455	32786	
1639	0	36216	29447	32764	
1640	0	36236	29461	32760	
1641	0	36244	29446	32754	
1642	0	36230	29447	32764	
1643	0	36218	29456	32758	
1644	0	36230	29446	32771	
1645	0	36228	29454	32769	
1646	0	36208	29475	32766	
1647	0	36226	29458	32749	
1648	0	36228	29464	32772	
1649	0	36230	29466	32766	
1650	0	36240	29456	32762	
1651	0	36216	29462	32765	
1652	0	36242	29447	32775	
1653	0	36200	29462	32742	
1654	0	36231	29460	32764	
1655	0	36212	29452	32757	
1656	0	36230	29454	32775	
1657	0	36224	29460	32742	
1658	0	36220	29467	32775	
1659	0	36230	29434	32722	
1660	0	36216	29464	32743	
1661	0	36230	29447	32754	
1662	0	36224	29459	32768	
1663	0	36226	29447	32747	
1664	0	36236	29446	32754	
1665	0	36226	29474	32775	
1666	0	36216	29480	32769	
1667	0	36232	29458	32771	
1668	0	36212	29472	32802	
1669	0	36316	29624	32655	
1670	0	36230	29432	32763	
1671	0	36218	29458	32759	
1672	0	36252	29452	32744	
1673	0	36108	28940	32967	
1674	0	36230	29454	32756	
1675	0	36213	29481	32768	
1676	0	36234	29410	32752	
1677	0	36230	29442	32733	
1678	0	36218	29460	32775	
1679	0	36230	29462	32760	
1680	0	36232	29450	32756	
1681	0	36230	29447	32751	
1682	0	36222	29459	32758	
1683	0	36236	29454	32758	
1684	0	36206	29467	32771	
1685	0	36226	29484	32773	
1686	0	36234	29462	32766	
1687	0	36224	29469	32764	
1688	0	36232	29464	32761	
1689	0	36226	29466	32775	
1690	0	36230	29465	32773	
1691	0	36210	29466	32760	
1692	0	36230	29451	32775	
1693	0	36218	29458	32788	
1694	0	36230	29468	32756	
1695	0	36224	29444	32772	
1696	0	36224	29476	32772	
1697	0	36216	29466	32775	
1698	0	36234	29465	32760	
1699	0	36230	29447	32756	
1700	0	36242	29458	32765	
1701	0	36226	29473	32772	
1702	0	36226	29468	32744	
1703	0	36216	29477	32762	
1704	0	36220	29479	32752	
1705	0	36216	29490	32749	
1706	0	36274	29383	32825	
1707	0	36136	29594	32711	
1708	0	36260	29490	32696	
1709	0	36336	29292	32688	
1710	0	36288	29439	32739	
1711	0	36248	29471	32705	
1712	0	36236	29502	32775	
1713	0	36226	29473	32733	
1714	0	36300	29440	32723	
1715	0	36252	29474	32710	
1716	0	36250	29480	32752	
1717	0	36222	29498	32712	
1718	0	36256	29432	32769	
1719	0	36248	29484	32746	
1720	0	36266	29458	32721	
1721	0	36264	29480	32711	
1722	0	36265	29463	32733	
1723	0	36256	29481	32694	
1724	0	36236	29504	32736	
1725	0	36248	29492	32754	
1726	0	36244	29480	32730	
1727	0	36212	29498	32731	
1728	0	36294	29447	32706	
1729	0	36352	29403	32720	
1730	0	36240	29492	32736	
1731	0	36256	29466	32718	
1732	0	36246	29489	32754	
1733	0	36244	29479	32721	
1734	0	36244	29506	32719	
1735	0	36242	29485	32730	
1736	0	36240	29490	32772	
1737	0	36252	29486	32754	
1738	0	36242	29479	32725	
1739	0	36252	29485	32742	
1740	0	36237	29507	32752	
1741	0	36218	29488	32742	
1742	0	36240	29497	32754	
1743	0	36256	29486	32769	
1744	0	36262	29481	32760	
1745	0	36264	29466	32747	
1746	0	36248	29487	32762	
1747	0	36248	29485	32730	
1748	0	36256	29472	32740	
1749	0	36252	29456	32749	
1750	0	36256	29477	32738	
1751	0	36242	29501	32775	
1752	0	36252	29490	32757	
1753	0	36244	29480	32752	
1754	0	36240	29496	32775	
1755	0	36250	29483	32722	
1756	0	36258	29481	32762	
1757	0	36258	29478	32723	
1758	0	36246	29484	32720	
1759	0	36256	29479	32765	
1760	0	36248	29484	32756	
1761	0	36248	29466	32759	
1762	0	36244	29476	32743	
1763	0	36264	29469	32752	
1764	0	36236	29494	32720	
1765	0	36256	29478	32765	
1766	0	36234	29506	32752	
1767	0	36256	29480	32760	
1768	0	36240	29481	32775	
1769	0	36260	29482	32744	
1770	0	36252	29482	32775	
1771	0	36264	29477	32752	
1772	0	36236	29496	32787	
1773	0	36236	29485	32744	
1774	0	36248	29472	32752	
1775	0	36246	29486	32763	
1776	0	36236	29511	32752	
1777	0	36184	29571	32768	
1778	0	36288	29400	32762	
1779	0	36224	29480	32726	
1780	0	36078	29670	32640	
1781	0	35594	29788	32547	
1782	0	37204	29944	32542	
1783	0	37456	29157	32544	
1784	0	37796	31975	29842	
1785	0	41990	36619	30778	
1786	0	36420	29366	32675	
1787	0	36772	30724	32972	
1788	0	36096	28964	33285	
1789	0	36870	29677	33314	
1790	0	37264	31607	32799	
1791	0	36968	31093	32944	
1792	0	36692	30486	33195	
1793	0	36726	30542	33074	
1794	0	36648	30132	33095	
1795	0	36620	30035	32980	
1796	0	36577	29950	32986	
1797	0	36568	29880	32942	
1798	0	36538	29839	32952	
1799	0	35720	27727	33607	
1800	0	36824	29735	32987	
1801	0	36548	29715	32924	
1802	0	36952	30172	32858	
1803	0	36668	29907	33213	
1804	0	36184	29318	33344	
1805	0	36816	30109	33276	
1806	0	34240	28594	34616	
1807	0	37520	30892	31125	
1808	0	37304	32389	31294	
1809	0	36448	28991	32984	
1810	0	36600	29856	32659	
1811	0	36000	30056	32775	
1812	0	36960	29074	32936	
1813	0	36530	29634	32775	
1814	0	36716	29840	32691	
1815	0	37410	29428	32802	
1816	0	36788	29364	32827	
1817	0	36400	30322	32818	
1818	0	36492	30404	32642	
1819	0	36384	30189	32775	
1820	0	36244	29325	33141	
1821	0	36290	29465	32903	
1822	0	36882	30430	32519	
1823	0	36953	30391	32548	
1824	0	36501	30320	32707	
1825	0	37155	29850	32796	
1826	0	36688	30015	32740	
1827	0	36696	30027	32698	
1828	0	37032	30804	32436	
1829	0	36448	29971	32679	
1830	0	36323	29690	32740	
1831	0	36648	29840	32696	
1832	0	36640	29583	32690	
1833	0	36988	29278	32640	
1834	0	36698	29920	32656	
1835	0	36644	30032	32656	
1836	0	36716	29973	32592	
1837	0	36700	30021	32678	
1838	0	36648	30034	32709	
1839	0	36600	30129	32617	
1840	0	36636	30020	32711	
1841	0	36626	30020	32722	
1842	0	36650	30036	32664	
1843	0	36672	29974	32696	
1844	0	36636	30020	32690	
1845	0	36692	29992	32672	
1846	0	36640	30011	32710	
1847	0	36550	30147	32524	
1848	0	36480	30068	32740	
1849	0	36664	30000	32692	
1850	0	36636	30006	32706	
1851	0	36704	29995	32659	
1852	0	36626	29992	32696	
1853	0	36634	29995	32705	
1854	0	36618	30014	32717	
1855	0	36624	29986	32725	
1856	0	37048	29703	32928	
1857	0	36370	30041	32704	
1858	0	36612	29996	32711	
1859	0	36652	29954	32647	
1860	0	36632	29986	32688	
1861	0	36644	29959	32684	
1862	0	36628	30009	32676	
1863	0	36546	29765	32695	
1864	0	36724	29864	32694	
1865	0	36624	29962	32686	
1866	0	36634	29992	32688	
1867	0	36644	29952	32711	
1868	0	36664	29936	32637	
1869	0	36632	29971	32674	
1870	0	36616	29960	32678	
1871	0	36649	29959	32682	
1872	0	36618	29962	32687	
1873	0	36634	29964	32663	
1874	0	36636	29970	32691	
1875	0	36624	29934	32635	
1876	0	36620	29956	32676	
1877	0	36608	29970	32679	
1878	0	36640	29985	32694	
1879	0	36636	29972	32666	
1880	0	36628	29978	32691	
1881	0	36676	29938	32709	
1882	0	36637	29996	32685	
1883	0	36656	29994	32682	
1884	0	36626	29981	32683	
1885	0	36648	29988	32704	
1886	0	36602	29980	32711	
1887	0	36716	29822	32743	
1888	0	36588	30055	32725	
1889	0	36616	29947	32697	
1890	0	36612	29935	32715	
1891	0	36694	29764	32753	
1892	0	36604	29991	32701	
1893	0	36600	29959	32707	
1894	0	36628	29968	32652	
1895	0	36340	30191	32707	
1896	0	36724	29840	32744	
1897	0	36629	29924	32647	
1898	0	36628	29985	32756	
1899	0	36605	29927	32685	
1900	0	36608	29949	32683	
1901	0	36580	29910	32668	
1902	0	36596	29961	32687	
1903	0	36608	29951	32686	
1904	0	36530	30200	32544	
1905	0	36700	29821	32647	
1906	0	36592	30128	32647	
1907	0	36648	29661	32710	
1908	0	36616	29941	32657	
1909	0	36596	29926	32658	
1910	0	36620	29921	32676	
1911	0	36620	29928	32659	
1912	0	36596	29946	32656	
1913	0	36660	30023	32674	
1914	0	36708	30034	32681	
1915	0	36679	30036	32636	
1916	0	36712	29993	32665	
1917	0	36476	29842	32694	
1918	0	36584	29932	32682	
1919	0	36600	29926	32652	
1920	0	36600	29927	32678	
1921	0	36600	29913	32686	
1922	0	36668	29910	32703	
1923	0	36500	29993	32702	
1924	0	36580	29933	32730	
1925	0	36612	29919	32711	
1926	0	36608	29911	32716	
1927	0	37304	30215	32610	
1928	0	36536	29978	32678	
1929	0	36506	29988	32720	
1930	0	36642	29952	32677	
1931	0	36612	29844	32700	
1932	0	36626	29906	32711	
1933	0	36572	29852	32672	
1934	0	36612	29969	32674	
1935	0	36580	29964	32711	
1936	0	36610	29921	32723	
1937	0	36584	29912	32704	
1938	0	36616	29906	32662	
1939	0	36584	29912	32680	
1940	0	36480	29979	32576	
1941	0	36676	29717	32708	
1942	0	36792	29848	32822	
1943	0	36487	30148	32658	
1944	0	36536	29850	32860	
1945	0	36544	30043	32708	
1946	0	36482	30014	32663	
1947	0	36636	29868	32711	
1948	0	36576	29910	32726	
1949	0	36612	29788	32676	
1950	0	36584	29895	32690	
1951	0	36470	29994	32690	
1952	0	36016	29830	32870	
1953	0	36608	29723	32722	
1954	0	36936	29930	32621	
1955	0	36544	29904	32722	
1956	0	36588	29882	32736	
1957	0	36588	29848	32722	
1958	0	36578	29874	32764	
1959	0	36618	29836	32760	
1960	0	36496	30082	32722	
1961	0	36550	29971	32733	
1962	0	36578	29871	32792	
1963	0	36604	29853	32711	
1964	0	36576	29889	32745	
1965	0	36600	29863	32731	
1966	0	36564	29925	32752	
1967	0	36576	29888	32722	
1968	0	36588	29894	32749	
1969	0	36576	29874	32711	
1970	0	36592	29876	32744	
1971	0	36592	29865	32709	
1972	0	36612	29818	32722	
1973	0	36505	29842	32739	
1974	0	36544	29925	32775	
1975	0	36544	29913	32742	
1976	0	36576	29904	32747	
1977	0	36648	29799	32682	
1978	0	36573	29854	32715	
1979	0	36324	30083	32700	
1980	0	36616	29828	32752	
1981	0	36572	29864	32703	
1982	0	36580	29874	32755	
1983	0	36544	29878	32731	
1984	0	36576	29893	32731	
1985	0	36548	29870	32749	
1986	0	36562	29878	32760	
1987	0	36585	29874	32725	
1988	0	36568	29882	32752	
1989	0	36578	29854	32734	
1990	0	36544	29887	32766	
1991	0	36584	29792	32745	
1992	0	36576	29964	32743	
1993	0	36536	29971	32712	
1994	0	36544	29873	32775	
1995	0	36560	29932	32727	
1996	0	36584	29887	32733	
1997	0	36580	29872	32711	
1998	0	36586	29826	32728	
1999	0	36576	29828	32731	
2000	0	36564	29876	32736	
2001	0	36572	29864	32738	
2002	0	36528	29959	32749	
2003	0	36544	29864	32734	
2004	0	36592	29849	32761	
2005	0	36524	29926	32743	
2006	0	36540	29927	32756	
2007	0	36538	29870	32736	
2008	0	36584	29900	32775	
2009	0	36580	29830	32711	
2010	0	36560	29862	32752	
2011	0	36560	29886	32728	
2012	0	36512	29878	32775	
2013	0	36396	29858	32728	
2014	0	36526	29920	32775	
2015	0	36560	29888	32758	
2016	0	36516	29830	32796	
2017	0	36560	29843	32736	
2018	0	36560	29874	32760	
2019	0	36546	29846	32754	
2020	0	36554	29874	32775	
2021	0	36564	29840	32754	
2022	0	36440	29843	32816	
2023	0	36626	29950	32720	
2024	0	36613	29886	32775	
2025	0	35760	29529	32796	
2026	0	36668	30023	32729	
2027	0	36442	29688	32731	
2028	0	36512	29858	32744	
2029	0	36536	29809	32711	
2030	0	36540	29888	32732	
2031	0	36536	29819	32694	
2032	0	36568	29864	32726	
2033	0	36552	29843	32711	
2034	0	36604	29816	32656	
2035	0	36516	29850	32768	
2036	0	36560	29859	32762	
2037	0	36561	29842	32758	
2038	0	36544	29872	32738	
2039	0	36548	29845	32741	
2040	0	36556	29831	32770	
2041	0	36568	29895	32734	
2042	0	36564	29913	32728	
2043	0	36546	29866	32765	
2044	0	36562	29869	32745	
2045	0	36562	29831	32733	
2046	0	36561	29857	32739	
2047	0	36580	29840	32720	
2048	0	36554	29873	32742	
2049	0	36550	29844	32738	
2050	0	36562	29875	32752	
2051	0	36551	29860	32738	
2052	0	36552	29875	32758	
2053	0	36514	29893	32748	
2054	0	36568	29856	32755	
2055	0	36536	29871	32728	
2056	0	36560	29865	32744	
2057	0	36600	29855	32714	
2058	0	36556	29838	32744	
2059	0	36544	29852	32746	
2060	0	36552	29864	32775	
2061	0	36556	29844	32711	
2062	0	36563	29875	32726	
2063	0	36554	29848	32711	
2064	0	36556	29860	32752	
2065	0	36556	29836	32751	
2066	0	36580	29865	32736	
2067	0	36536	29863	32722	
2068	0	36536	29874	32732	
2069	0	36556	29843	32751	
2070	0	36562	29867	32743	
2071	0	36548	29860	32716	
2072	0	36576	29863	32752	
2073	0	36562	29848	32726	
2074	0	36563	29860	32751	
2075	0	36536	29870	32714	
2076	0	36556	29868	32762	
2077	0	36541	29876	32750	
2078	0	36564	29860	32748	
2079	0	36548	29838	32723	
2080	0	36304	29767	32768	
2081	0	36648	29810	32729	
2082	0	36550	29855	32761	
2083	0	36530	29851	32744	
2084	0	36544	29871	32744	
2085	0	36532	29847	32742	
2086	0	36560	29863	32738	
2087	0	36544	29819	32724	
2088	0	36544	29879	32739	
2089	0	36541	29831	32740	
2090	0	36546	29855	32749	
2091	0	36536	29848	32736	
2092	0	36552	29858	32736	
2093	0	36544	29854	32738	
2094	0	36540	29847	32743	
2095	0	36528	29861	32704	
2096	0	36552	29848	32769	
2097	0	36550	29856	32716	
2098	0	36552	29852	32748	
2099	0	36556	29829	32744	
2100	0	36528	29865	32754	
2101	0	36540	29850	32726	
2102	0	36546	29861	32734	
2103	0	36536	29831	32750	
2104	0	36536	29854	32742	
2105	0	35899	29600	32775	
2106	0	36960	30011	32649	
2107	0	36514	29866	32756	
2108	0	36552	29829	32760	
2109	0	36526	29856	32736	
2110	0	36520	29874	32765	
2111	0	36536	29827	32728	
2112	0	36548	29846	32750	
2113	0	36552	29826	32734	
2114	0	36548	29840	32756	
2115	0	36532	29844	32743	
2116	0	36544	29856	32754	
2117	0	36536	29830	32720	
2118	0	36548	29818	32760	
2119	0	36532	29831	32734	
2120	0	36520	29886	32744	
2121	0	36512	29865	32740	
2122	0	36538	29842	32770	
2123	0	36544	29851	32728	
2124	0	36546	29840	32733	
2125	0	36554	29822	32730	
2126	0	36528	29846	32734	
2127	0	36544	29831	32717	
2128	0	36536	29831	32736	
2129	0	36521	29848	32754	
