# OpenSignals Text File Format
# {"00:07:80:3B:46:38": {"sensor": ["XYZ", "XYZ", "XYZ"], "device name": "00:07:80:3B:46:38", "column": ["nSeq", "DI", "x", "y", "z"], "sync interval": 2, "time": "16:15:7.569", "comments": "", "device connection": "BTH00:07:80:3B:46:38", "channels": [1, 2, 3], "date": "2016-6-30", "mode": 0, "digital IO": [0, 1], "firmware version": 772, "device": "biosignalsplux", "position": 0, "sampling rate": 100, "label": ["x", "y", "z"], "resolution": [16, 16, 16], "special": [{}, {}, {}]}}
# EndOfHeader
0	0	32596	28415	34341	
1	0	32760	28551	34458	
2	0	32774	28654	34710	
3	0	32976	28624	34792	
4	0	33056	28534	34576	
5	0	33092	28579	34652	
6	0	33210	28608	34778	
7	0	33016	28568	34759	
8	0	33048	28512	34722	
9	0	32980	28526	34573	
10	0	32978	28572	34586	
11	0	33040	28600	34788	
12	0	33018	28645	35200	
13	0	33040	28528	35171	
14	0	32987	28450	34886	
15	0	32972	28386	34908	
16	0	32988	28345	35012	
17	0	32966	28401	35064	
18	0	32952	28482	35037	
19	0	32836	28548	35008	
20	0	32804	28598	34951	
21	0	32738	28589	34808	
22	0	32708	28540	34677	
23	0	32723	28585	34698	
24	0	32738	28612	34823	
25	0	32860	28572	34944	
26	0	32956	28522	34912	
27	0	32980	28504	34850	
28	0	33064	28480	35038	
29	0	33112	28397	35291	
30	0	33088	28384	35314	
31	0	33146	28358	35369	
32	0	33100	28320	35501	
33	0	33264	28365	35660	
34	0	33138	28458	35643	
35	0	33196	28482	35557	
36	0	33224	28504	35455	
37	0	33210	28627	35250	
38	0	33296	28760	35030	
39	0	33194	28829	34922	
40	0	32903	28877	34823	
41	0	32762	28890	34851	
42	0	32706	28804	34930	
43	0	32802	28679	35004	
44	0	32904	28576	35207	
45	0	32898	28519	35316	
46	0	33004	28441	35271	
47	0	33097	28382	35429	
48	0	33202	28378	35584	
49	0	33108	28436	35485	
50	0	33145	28412	35545	
51	0	33160	28348	35705	
52	0	33148	28295	35784	
53	0	33330	28252	35903	
54	0	33184	28282	35803	
55	0	33328	28258	35743	
56	0	33325	28247	35734	
57	0	33280	28295	35716	
58	0	33322	28332	35655	
59	0	33324	28328	35600	
60	0	33232	28372	35559	
61	0	33186	28404	35527	
62	0	33172	28480	35446	
63	0	33234	28487	35319	
64	0	33287	28560	35216	
65	0	33164	28595	35072	
66	0	33220	28620	35015	
67	0	33241	28650	34997	
68	0	33235	28670	34962	
69	0	33108	28655	34944	
70	0	33121	28604	34990	
71	0	33204	28594	35033	
72	0	33152	28600	35071	
73	0	33048	28640	34972	
74	0	32968	28615	35015	
75	0	32848	28587	35060	
76	0	32740	28553	35096	
77	0	32804	28572	35117	
78	0	32792	28602	35074	
79	0	32914	28574	35102	
80	0	33080	28550	35190	
81	0	33032	28512	35188	
82	0	32968	28487	35238	
83	0	32948	28487	35328	
84	0	32878	28480	35270	
85	0	32824	28486	35275	
86	0	32976	28517	35353	
87	0	32971	28533	35194	
88	0	32952	28545	35216	
89	0	32906	28569	35234	
90	0	33024	28583	35224	
91	0	33060	28595	35206	
92	0	33060	28633	35175	
93	0	33088	28651	35152	
94	0	33104	28627	35172	
95	0	33209	28541	35290	
96	0	33168	28530	35318	
97	0	33088	28542	35286	
98	0	33037	28571	35254	
99	0	32940	28576	35360	
100	0	32945	28615	35267	
101	0	32905	28676	35134	
102	0	32903	28652	35234	
103	0	32696	28661	35244	
104	0	32872	28658	35308	
105	0	33093	28664	35302	
106	0	33129	28658	35330	
107	0	33233	28698	35335	
108	0	33336	28743	35260	
109	0	33420	28679	35284	
110	0	33164	28720	35218	
111	0	33223	28800	35156	
112	0	33186	28755	35158	
113	0	33170	28717	35356	
114	0	33184	28743	35416	
115	0	33092	28802	35206	
116	0	32840	28879	35044	
117	0	32884	28866	35269	
118	0	33228	28807	35558	
119	0	33528	28794	35426	
120	0	33768	28749	35299	
121	0	33664	28800	35456	
122	0	33760	28902	35234	
123	0	33856	28854	35243	
124	0	33944	28865	35451	
125	0	33922	28800	35551	
126	0	34026	28852	35622	
127	0	34122	28794	35415	
128	0	34040	28745	35501	
129	0	33588	28823	35456	
130	0	33784	28761	35463	
131	0	34044	28749	35770	
132	0	33704	28728	35596	
133	0	33668	29282	35709	
134	0	33200	28570	35760	
135	0	33904	28990	36064	
136	0	33364	29255	35271	
137	0	33671	29085	35428	
138	0	34439	29746	35522	
139	0	34096	28477	35172	
140	0	34696	29054	36336	
141	0	34664	28638	35077	
142	0	34692	28804	36103	
143	0	34834	28819	36214	
144	0	34596	28969	35488	
145	0	34524	29371	35076	
146	0	34282	28794	35168	
147	0	34759	28878	36348	
148	0	34679	28896	36304	
149	0	34503	29592	36278	
150	0	34534	28947	35818	
151	0	34704	29158	36622	
152	0	35399	29170	36324	
153	0	34769	29479	36093	
154	0	34178	29795	35790	
155	0	33976	29703	35326	
156	0	33704	29669	35303	
157	0	34298	29400	36146	
158	0	35335	29511	36871	
159	0	35099	29402	36392	
160	0	34242	29381	36338	
161	0	33852	29424	36487	
162	0	34716	29519	36324	
163	0	35132	29569	36455	
164	0	34572	29600	36407	
165	0	34192	29778	35892	
166	0	34144	29784	35310	
167	0	34338	29910	35143	
168	0	34957	29764	35346	
169	0	34980	29951	35824	
170	0	33600	30448	36294	
171	0	33776	31401	36264	
172	0	34810	30629	37984	
173	0	35732	30514	39325	
174	0	37511	31111	38052	
175	0	37181	30129	33412	
176	0	32480	30618	36631	
177	0	34872	30061	36944	
178	0	34984	30311	37154	
179	0	35448	30484	39014	
180	0	34368	30471	37774	
181	0	35296	30753	36192	
182	0	33664	31021	35419	
183	0	32916	30656	35824	
184	0	34810	30807	36567	
185	0	35532	30136	37024	
186	0	34066	30087	33502	
187	0	35384	30236	35297	
188	0	35569	30599	37992	
189	0	35645	30724	37712	
190	0	34620	30599	36508	
191	0	34712	31012	35577	
192	0	34729	31081	33735	
193	0	34572	31058	36097	
194	0	34802	31261	36332	
195	0	36512	31125	37801	
196	0	36184	31384	37099	
197	0	36554	31075	35986	
198	0	36262	30663	35330	
199	0	32876	32368	38476	
200	0	37688	30874	37568	
201	0	36026	30839	40302	
202	0	35204	31559	34587	
203	0	35440	31638	35506	
204	0	35814	31974	36738	
205	0	35817	32251	35392	
206	0	34156	30964	31589	
207	0	36800	31725	38528	
208	0	35272	32529	34175	
209	0	36136	32745	34917	
210	0	37200	32959	36144	
211	0	37202	33192	35140	
212	0	35714	39111	37688	
213	0	35480	34418	37554	
214	0	37224	33095	39599	
215	0	37908	32550	34444	
216	0	34642	32732	35552	
217	0	37904	32577	34732	
218	0	35378	31047	36556	
219	0	34612	33281	34502	
220	0	35454	33196	36452	
221	0	35205	33485	34707	
222	0	36320	33709	34941	
223	0	36532	33787	35232	
224	0	37136	33900	35228	
225	0	37353	34340	36420	
226	0	37692	33837	35788	
227	0	37692	34356	35012	
228	0	37520	34077	34836	
229	0	36882	34017	34119	
230	0	36844	34085	33605	
231	0	36736	33974	33599	
232	0	36964	34040	33531	
233	0	37232	34080	33799	
234	0	37448	34213	33663	
235	0	37412	34294	33680	
236	0	37658	34462	33725	
237	0	37648	34540	33709	
238	0	37512	34096	35869	
239	0	36388	33771	34775	
240	0	36424	33730	34938	
241	0	39268	30215	29895	
242	0	34766	37556	39559	
243	0	37132	34088	34454	
244	0	38422	33798	34733	
245	0	39843	33339	33564	
246	0	38736	33546	34246	
247	0	37296	34078	34294	
248	0	37968	33199	33538	
249	0	38180	32816	33384	
250	0	37360	32920	33430	
251	0	36824	32647	33206	
252	0	36660	32352	33091	
253	0	36946	32034	32834	
254	0	36304	31988	33056	
255	0	36521	31632	33088	
256	0	37036	31724	32668	
257	0	37700	31543	32458	
258	0	37892	31539	32250	
259	0	37872	31936	32087	
260	0	37608	32103	32068	
261	0	37512	31462	32797	
262	0	37273	31634	32839	
263	0	36999	32168	32552	
264	0	37058	32363	32548	
265	0	37282	32120	32706	
266	0	37576	32095	32887	
267	0	37954	30533	34655	
268	0	37452	31904	33637	
269	0	37690	32884	32775	
270	0	37652	32029	34890	
271	0	37946	33206	32775	
272	0	37434	31467	34944	
273	0	37492	32445	33984	
274	0	37524	32402	33878	
275	0	37373	32804	33603	
276	0	37600	33070	33370	
277	0	37718	33008	33095	
278	0	37880	32722	32903	
279	0	38112	32371	32731	
280	0	38011	32391	32699	
281	0	37728	32813	32675	
282	0	37436	32598	32536	
283	0	37328	32536	32071	
284	0	37860	32127	31700	
285	0	36848	32515	31592	
286	0	37312	32550	31493	
287	0	37948	30727	32510	
288	0	37516	33027	32464	
289	0	37474	32428	32871	
290	0	37940	31714	32339	
291	0	37304	32157	32293	
292	0	37296	32177	32236	
293	0	37390	32856	32105	
294	0	37652	32116	32676	
295	0	37648	32021	32744	
296	0	37600	32210	32358	
297	0	37383	32162	32351	
298	0	37192	32544	32026	
299	0	36444	32052	32647	
300	0	37354	31897	32363	
301	0	37950	31708	32112	
302	0	36760	31042	32199	
303	0	36188	31908	32126	
304	0	38060	33362	33577	
305	0	36858	33370	33656	
306	0	37086	32772	33735	
307	0	35552	32053	32439	
308	0	37568	31962	33536	
309	0	38640	32429	33386	
310	0	37960	32450	33351	
311	0	37290	32621	33479	
312	0	37338	32451	33696	
313	0	37250	32967	33446	
314	0	37260	32920	33458	
315	0	37154	33755	33305	
316	0	37736	32357	33640	
317	0	37056	33095	33504	
318	0	36414	33752	33183	
319	0	36096	30245	35012	
320	0	36480	33192	32722	
321	0	40903	29818	31712	
322	0	38258	32926	32301	
323	0	37604	33100	33708	
324	0	37536	33413	33632	
325	0	37961	33031	33305	
326	0	37360	32565	32903	
327	0	37474	33952	32058	
328	0	37912	33970	32609	
329	0	38696	33285	33119	
330	0	38336	33536	32762	
331	0	38492	33434	32775	
332	0	37720	33768	32834	
333	0	37040	33673	33198	
334	0	36920	33561	33639	
335	0	36994	33616	33607	
336	0	37632	33538	33624	
337	0	37932	33552	33261	
338	0	37312	33374	33351	
339	0	35232	33647	33433	
340	0	36548	33862	32454	
341	0	38180	33755	33641	
342	0	37700	33654	33569	
343	0	36924	33355	33671	
344	0	37364	33475	33607	
345	0	36224	33463	33662	
346	0	36842	33644	33276	
347	0	37540	33997	32876	
348	0	37796	34117	32981	
349	0	37528	34209	32733	
350	0	37518	34152	32775	
351	0	37362	33970	33196	
352	0	37324	33999	32825	
353	0	37376	34085	32616	
354	0	37336	34271	32212	
355	0	37977	34097	32623	
356	0	38024	34008	32886	
357	0	37604	34153	32530	
358	0	37580	34206	32359	
359	0	37624	34197	32404	
360	0	37336	34192	32544	
361	0	37476	34242	32711	
362	0	37364	34055	32673	
363	0	37469	33914	33044	
364	0	37618	33900	32862	
365	0	37376	33980	32760	
366	0	37296	33908	32647	
367	0	37272	34119	32114	
368	0	37364	34177	31858	
369	0	37669	34055	31941	
370	0	37648	34119	31972	
371	0	37020	34717	31544	
372	0	37724	33891	32012	
373	0	37405	34130	31778	
374	0	37383	33991	31592	
375	0	37600	33823	31943	
376	0	37506	33991	31336	
377	0	37378	33657	31604	
378	0	37168	33968	31345	
379	0	37596	33989	31216	
380	0	37656	33975	31464	
381	0	37612	33843	31862	
382	0	37812	33633	32182	
383	0	37796	33639	32199	
384	0	38209	33635	31985	
385	0	38080	33603	32576	
386	0	38087	33523	32993	
387	0	38565	33655	32702	
388	0	38232	33538	33221	
389	0	36720	33586	33581	
390	0	37468	33692	32967	
391	0	37316	33645	33065	
392	0	37232	33351	33639	
393	0	37088	33434	33287	
394	0	37176	33378	33410	
395	0	37266	33285	33368	
396	0	37456	33280	33466	
397	0	37665	33458	33470	
398	0	38008	33380	33709	
399	0	37976	33357	33951	
400	0	37778	33403	34125	
401	0	37690	33314	34256	
402	0	37676	33144	34444	
403	0	35814	33475	35334	
404	0	37092	32817	34566	
405	0	37440	33326	34041	
406	0	36996	33325	33918	
407	0	37556	33029	33904	
408	0	37752	33046	33616	
409	0	37898	33008	33468	
410	0	37920	33014	33287	
411	0	37584	32850	33222	
412	0	37316	33715	32636	
413	0	37532	32628	33063	
414	0	36618	33063	32019	
415	0	37352	32384	32946	
416	0	36936	32642	32685	
417	0	36920	32025	33112	
418	0	36458	34790	31744	
419	0	36992	31488	32887	
420	0	37436	31172	33024	
421	0	37304	31514	33109	
422	0	36960	31285	33159	
423	0	37049	31197	32989	
424	0	37248	30745	33088	
425	0	37217	30292	33234	
426	0	37006	30072	33361	
427	0	36932	30244	33376	
428	0	36934	30215	33175	
429	0	37114	29814	33366	
430	0	37188	29792	33399	
431	0	37216	29587	33347	
432	0	37163	29434	33335	
433	0	36828	29759	33173	
434	0	36640	29484	32960	
435	0	36290	29984	32890	
436	0	35725	30005	32859	
437	0	35552	30083	33078	
438	0	35664	29668	33328	
439	0	35762	29428	33554	
440	0	35560	29161	33798	
441	0	35666	28846	33840	
442	0	35968	29023	33752	
443	0	35784	29138	34109	
444	0	35619	29808	34080	
445	0	35464	28627	34448	
446	0	35128	28658	34564	
447	0	34533	28702	34067	
448	0	35008	28703	34050	
449	0	34676	28615	34311	
450	0	34660	28162	34540	
451	0	34484	28529	34466	
452	0	34664	28275	34563	
453	0	34589	28276	34432	
454	0	34395	29353	33790	
455	0	34439	28674	33536	
456	0	34896	29106	33261	
457	0	34148	28720	33751	
458	0	33644	28774	34375	
459	0	31876	29396	36418	
460	0	32248	29062	36246	
461	0	32684	28930	34980	
462	0	33056	28640	35279	
463	0	31954	29326	36210	
464	0	30760	30232	36084	
465	0	32690	29767	36067	
466	0	31684	29277	35625	
467	0	27920	31521	38610	
468	0	32160	29381	35227	
469	0	31472	29333	36320	
470	0	31711	29633	36359	
471	0	29098	29319	36152	
472	0	31520	28955	35962	
473	0	31600	29010	36330	
474	0	31264	28910	36248	
475	0	31360	28791	35682	
476	0	30504	28716	35450	
477	0	29656	28760	35056	
478	0	33400	25671	34492	
479	0	29908	30457	35960	
480	0	29504	29953	35376	
481	0	29713	30436	35097	
482	0	30530	30765	35424	
483	0	29516	30778	35380	
484	0	27652	30320	36016	
485	0	28166	30485	35008	
486	0	28324	30082	34910	
487	0	27512	29824	34549	
488	0	28292	30268	33956	
489	0	28660	30368	34343	
490	0	28692	31666	35047	
491	0	28760	32979	36348	
492	0	29060	33124	36118	
493	0	28580	32127	36711	
494	0	28480	32391	36570	
495	0	28652	33382	36895	
496	0	29044	33575	36308	
497	0	32176	31295	32715	
498	0	27438	30042	33644	
499	0	27832	31497	34726	
500	0	28637	32018	34853	
501	0	28167	32342	34977	
502	0	27570	32039	35038	
503	0	26018	31806	35052	
504	0	26376	30791	33479	
505	0	27696	31852	34524	
506	0	28568	33351	34723	
507	0	28620	32860	33613	
508	0	28642	33055	34219	
509	0	27884	32940	34237	
510	0	28128	33452	34431	
511	0	28196	33710	34392	
512	0	28328	33824	34567	
513	0	28982	33596	33956	
514	0	28608	33166	33472	
515	0	28258	33670	34086	
516	0	28024	34613	34823	
517	0	25596	37352	34747	
518	0	26438	34031	34138	
519	0	27690	33875	35748	
520	0	28308	33688	35450	
521	0	28042	33956	35680	
522	0	27337	33484	34269	
523	0	28212	33388	34025	
524	0	28144	33584	34100	
525	0	28688	33735	34034	
526	0	28551	33504	33766	
527	0	28326	33526	33725	
528	0	28734	33382	34583	
529	0	28813	33583	34012	
530	0	28082	33735	33712	
531	0	28117	33484	33640	
532	0	27484	33750	33189	
533	0	28096	33406	33607	
534	0	27896	33855	33516	
535	0	27642	34137	33185	
536	0	28112	33776	33240	
537	0	27574	33707	32937	
538	0	28460	33482	33671	
539	0	28066	32864	33991	
540	0	28138	32297	35032	
541	0	27930	31934	35296	
542	0	27384	32474	34715	
543	0	27461	32775	34386	
544	0	27341	33072	33874	
545	0	28236	33024	34091	
546	0	28994	32807	34405	
547	0	29296	32756	34239	
548	0	27901	32514	34055	
549	0	27672	32134	34164	
550	0	26948	31855	33975	
551	0	26882	31874	33810	
552	0	27758	32317	34144	
553	0	27672	31828	34502	
554	0	26887	31686	34020	
555	0	27016	31742	33828	
556	0	27357	31994	33880	
557	0	27828	32168	33799	
558	0	27334	32856	33944	
559	0	28386	32293	34078	
560	0	27844	32080	33501	
561	0	27964	32428	33314	
562	0	27712	32261	33360	
563	0	27504	32093	33520	
564	0	27745	30528	33331	
565	0	27757	32634	33486	
566	0	28140	32460	33648	
567	0	27520	32243	33617	
568	0	27482	31200	33504	
569	0	28544	32556	33711	
570	0	29010	32955	34239	
571	0	28765	33046	33980	
572	0	27913	32946	33581	
573	0	26813	31960	33563	
574	0	27072	32141	33561	
575	0	27546	32572	33316	
576	0	27270	32671	33382	
577	0	26936	32636	33274	
578	0	26842	32697	33206	
579	0	26768	33667	33209	
580	0	27256	32491	33576	
581	0	26605	31976	34074	
582	0	28196	32318	34212	
583	0	27840	32390	34023	
584	0	27912	32698	33472	
585	0	27762	32626	33500	
586	0	27766	32759	33540	
587	0	27568	32541	33572	
588	0	27350	32503	33578	
589	0	28060	32647	33380	
590	0	28216	32723	33576	
591	0	27754	32323	33698	
592	0	28096	32006	33637	
593	0	27460	30688	30087	
594	0	27548	32760	37035	
595	0	28036	33346	34413	
596	0	28920	31889	32967	
597	0	27676	31266	31890	
598	0	27760	32744	35350	
599	0	28313	32317	32598	
600	0	30464	28952	32131	
601	0	27020	33301	33586	
602	0	27980	33645	31638	
603	0	28176	32355	32890	
604	0	29954	32295	32775	
605	0	24560	31856	31721	
606	0	25061	31388	30410	
607	0	27778	33884	33022	
608	0	28392	34418	32038	
609	0	27214	34247	33971	
610	0	28237	32477	32775	
611	0	29464	32310	32806	
612	0	29514	32893	32039	
613	0	28600	33390	32128	
614	0	26844	34311	31744	
615	0	25660	34887	31596	
616	0	26490	34162	31860	
617	0	27804	33741	32344	
618	0	28329	33404	32143	
619	0	28453	33268	32233	
620	0	28332	33558	32084	
621	0	28096	33796	31736	
622	0	27625	33779	30838	
623	0	27732	33920	31321	
624	0	27592	33850	31862	
625	0	26580	33302	31744	
626	0	27668	33364	31821	
627	0	26944	34402	32191	
628	0	27880	33713	32588	
629	0	28040	33515	31791	
630	0	28700	32948	31469	
631	0	27782	32775	31841	
632	0	27452	32898	31525	
633	0	27506	33041	31550	
634	0	25850	34407	31954	
635	0	27897	32820	31658	
636	0	27494	32740	31454	
637	0	27760	32667	31524	
638	0	27784	32505	31526	
639	0	28240	32832	31695	
640	0	27936	32758	31546	
641	0	27688	32807	31776	
642	0	27712	32576	31784	
643	0	27252	32525	31378	
644	0	27968	33031	32022	
645	0	28248	32711	31890	
646	0	27980	32911	31718	
647	0	28112	33366	32134	
648	0	28156	33021	32133	
649	0	27686	32498	32263	
650	0	27306	32984	31832	
651	0	27994	33228	32291	
652	0	28400	32807	32166	
653	0	28376	33477	32563	
654	0	28482	33777	33038	
655	0	27864	34484	33136	
656	0	28388	34444	31029	
657	0	27556	31824	31680	
658	0	27828	32738	33197	
659	0	26668	33095	32806	
660	0	28006	33341	33086	
661	0	28128	33430	32937	
662	0	27907	33815	33064	
663	0	27901	33747	33024	
664	0	27782	33281	32823	
665	0	27820	33017	32839	
666	0	28069	34033	32699	
667	0	25848	33590	32948	
668	0	28516	32564	33534	
669	0	27896	33325	33306	
670	0	28136	33783	33272	
671	0	27992	33479	33360	
672	0	27712	33318	33415	
673	0	27874	33408	33445	
674	0	27820	33321	33421	
675	0	27882	33346	33479	
676	0	27672	33207	33431	
677	0	27600	32967	33432	
678	0	28257	32952	33324	
679	0	26560	33692	33367	
680	0	28376	33879	33192	
681	0	28570	32816	33000	
682	0	24236	34311	33174	
683	0	28955	33184	33363	
684	0	27504	32535	33287	
685	0	27120	33641	33326	
686	0	28324	33056	33301	
687	0	27956	33414	33281	
688	0	27688	33140	33476	
689	0	28039	32872	33316	
690	0	27976	32878	33355	
691	0	27696	33043	33313	
692	0	27856	33197	33347	
693	0	28038	33029	33220	
694	0	28084	33029	33101	
695	0	28072	32815	33074	
696	0	27714	32946	33121	
697	0	29660	31516	32289	
698	0	28396	32177	32816	
699	0	27265	33134	33159	
700	0	27764	32652	33488	
701	0	28064	32923	33106	
702	0	27870	33307	33095	
703	0	27812	33348	32979	
704	0	27788	33257	32908	
705	0	27780	33156	33000	
706	0	27904	33142	32932	
707	0	27796	33096	32999	
708	0	27913	32947	33145	
709	0	27880	32806	33080	
710	0	27792	33191	33108	
711	0	27324	33030	32871	
712	0	27437	33083	32864	
713	0	27785	33229	32933	
714	0	28004	32962	32985	
715	0	28136	32864	33177	
716	0	27900	33068	33088	
717	0	27648	33071	32912	
718	0	27230	33180	32810	
719	0	27328	33209	32827	
720	0	27478	33287	32758	
721	0	27626	33147	32858	
722	0	27718	33138	32791	
723	0	27836	33159	32788	
724	0	27840	32956	33132	
725	0	27834	33016	33137	
726	0	28184	33017	33059	
727	0	29420	32205	32071	
728	0	27502	33122	32842	
729	0	27373	32515	32917	
730	0	27564	33050	33200	
731	0	27512	32730	33344	
732	0	27642	32960	33256	
733	0	27328	33180	33170	
734	0	28029	32736	33284	
735	0	28396	32599	33360	
736	0	28134	32754	33310	
737	0	27816	32807	33287	
738	0	27517	32745	33352	
739	0	27532	32942	33408	
740	0	27424	33072	33338	
741	0	27866	32982	33287	
742	0	27832	32932	33319	
743	0	27856	32942	33447	
744	0	27688	32802	33520	
745	0	27748	32724	33595	
746	0	27714	32962	33458	
747	0	27840	33135	33285	
748	0	27880	32956	33276	
749	0	27944	33195	33287	
750	0	27916	32953	33415	
751	0	27338	33601	34624	
752	0	27904	33922	33078	
753	0	27378	32817	32814	
754	0	27662	33345	34235	
755	0	27756	33192	33248	
756	0	27746	32775	31152	
757	0	28221	33164	33526	
758	0	27992	32967	33134	
759	0	27714	32938	33076	
760	0	27778	32702	33189	
761	0	27680	32704	33223	
762	0	27632	32813	32665	
763	0	27940	32775	33389	
764	0	27441	33016	33195	
765	0	27780	32974	33063	
766	0	27960	32988	33046	
767	0	28116	33014	33080	
768	0	27992	32865	33156	
769	0	28836	33264	27986	
770	0	26900	32659	33476	
771	0	27562	32827	33708	
772	0	27776	32869	32690	
773	0	28218	32940	32896	
774	0	27970	33069	32709	
775	0	27809	32716	32864	
776	0	27830	32604	32870	
777	0	27826	32550	32902	
778	0	27668	32573	32952	
779	0	27646	32678	32978	
780	0	27616	32594	32998	
781	0	27714	32583	32954	
782	0	27869	32640	32832	
783	0	27908	32615	32837	
784	0	27928	32626	32839	
785	0	27888	32706	32858	
786	0	27818	32666	32818	
787	0	27768	32586	32868	
788	0	27738	32598	32878	
789	0	27524	32560	32945	
790	0	27560	32636	32903	
791	0	27648	32770	32902	
792	0	27800	33012	33106	
793	0	27878	32893	33026	
794	0	27941	32816	32955	
795	0	27896	32775	32920	
796	0	27800	32705	32922	
797	0	27544	32504	33020	
798	0	27672	32536	33158	
799	0	27216	32592	33195	
800	0	27622	32496	33222	
801	0	27808	32804	33066	
802	0	27848	32752	33062	
803	0	27896	32853	33036	
804	0	27834	32941	33042	
805	0	27800	32898	33178	
806	0	27808	32805	33127	
807	0	27825	32738	33124	
808	0	27584	32581	33229	
809	0	28088	32914	33024	
810	0	27906	32861	32922	
811	0	27748	32758	33239	
812	0	27574	32839	33241	
813	0	27552	32775	33234	
814	0	27584	32883	33316	
815	0	27681	32868	33174	
816	0	27906	32775	33287	
817	0	27876	32799	33366	
818	0	27768	32725	33338	
819	0	27730	32830	33287	
820	0	27762	32939	33032	
821	0	27680	32911	33116	
822	0	27768	32760	33240	
823	0	27672	32834	33216	
824	0	27610	32923	33234	
825	0	27676	32654	33368	
826	0	27908	32731	33252	
827	0	27748	32662	33262	
828	0	27998	32811	33381	
829	0	27729	32807	33318	
830	0	27782	33028	33130	
831	0	27725	32816	33222	
832	0	27784	32885	33174	
833	0	27782	32726	33275	
834	0	27768	32653	33221	
835	0	27880	32810	33223	
836	0	27832	32746	33198	
837	0	27830	32754	33202	
838	0	27648	32811	33250	
839	0	27768	32912	33258	
840	0	27736	33022	33244	
841	0	27817	33067	33228	
842	0	27680	33047	33193	
843	0	27596	32932	33241	
844	0	27924	32846	33208	
845	0	27937	32677	33268	
846	0	27796	32644	33308	
847	0	27596	32677	33356	
848	0	27620	32721	33298	
849	0	27714	32811	33272	
850	0	27810	32858	33185	
851	0	27868	32768	33222	
852	0	27778	32873	33267	
853	0	27644	32900	33231	
854	0	27748	33143	33126	
855	0	27885	32682	31751	
856	0	27944	33029	33488	
857	0	28039	32903	32775	
858	0	27952	32871	33201	
859	0	27818	32903	33259	
860	0	27662	32970	33244	
861	0	27778	33038	33380	
862	0	27730	32836	32898	
863	0	27758	32988	33144	
864	0	27722	32892	32601	
865	0	27712	32967	33031	
866	0	27808	32763	32903	
867	0	27800	33022	32932	
868	0	27752	32903	33095	
869	0	27698	32941	33030	
870	0	27874	33123	33145	
871	0	27756	32879	32984	
872	0	27784	32756	33122	
873	0	27557	32944	33104	
874	0	27586	32772	33029	
875	0	27712	32732	33116	
876	0	27655	32775	32757	
877	0	27617	33067	33543	
878	0	27984	32763	32903	
879	0	27552	32788	32718	
880	0	27828	32814	33322	
881	0	27684	32850	32898	
882	0	27900	32882	33019	
883	0	27865	32843	32951	
884	0	27620	32817	33244	
885	0	27866	32839	33203	
886	0	27646	33001	33568	
887	0	27972	32903	33132	
888	0	28000	32944	33217	
889	0	27740	32642	33218	
890	0	27752	32698	33281	
891	0	27705	32725	33323	
892	0	27770	32859	33246	
893	0	27664	32694	33158	
894	0	27702	32829	33287	
895	0	27748	32711	33388	
896	0	27762	32645	33223	
897	0	27817	32635	33392	
898	0	27794	32659	33346	
899	0	27752	32630	33342	
900	0	27828	32626	33368	
901	0	27744	32729	33433	
902	0	27852	32676	33378	
903	0	27922	32699	33364	
904	0	27888	32758	33396	
905	0	27772	32676	33406	
906	0	27768	32620	33412	
907	0	27864	32578	33436	
908	0	27752	32556	33515	
909	0	27624	32629	33460	
910	0	27766	32816	33412	
911	0	27816	32812	33372	
912	0	27898	32771	33528	
913	0	27840	32612	33561	
914	0	27860	32627	33648	
915	0	27936	32820	33595	
916	0	27760	32615	33580	
917	0	27986	32711	33563	
918	0	27768	32696	33595	
919	0	27869	32612	33589	
920	0	27680	32605	33607	
921	0	27706	32769	33627	
922	0	27816	32665	33561	
923	0	27898	32551	33600	
924	0	27808	32563	33599	
925	0	27795	32654	33542	
926	0	27796	32630	33592	
927	0	27678	32564	33595	
928	0	27782	32646	33598	
929	0	27714	32738	33607	
930	0	27568	32717	33568	
931	0	27785	32805	33491	
932	0	28036	32726	33588	
933	0	27984	32686	33560	
934	0	27860	32634	33554	
935	0	27764	32616	33585	
936	0	27804	32679	33637	
937	0	27676	32608	33584	
938	0	27734	32786	33562	
939	0	27720	32719	33664	
940	0	27578	32583	33498	
941	0	27728	32555	33659	
942	0	27800	32710	33592	
943	0	27856	32582	33607	
944	0	27840	32583	33558	
945	0	27048	32406	33479	
946	0	28042	32662	33700	
947	0	27714	32633	33671	
948	0	27904	32799	33557	
949	0	27860	32872	33548	
950	0	27908	32610	33622	
951	0	27790	32500	33645	
952	0	27817	32582	33626	
953	0	27850	32538	33685	
954	0	27677	32463	33488	
955	0	27408	32565	33702	
956	0	28452	32548	33680	
957	0	27328	32631	33661	
958	0	27708	32752	33605	
959	0	27813	32676	33697	
960	0	27844	32662	33716	
961	0	26328	32887	33542	
962	0	27690	32775	33671	
963	0	28600	32630	33799	
964	0	27816	32559	33799	
965	0	27904	32518	33799	
966	0	27818	32554	33799	
967	0	27848	32566	33825	
968	0	27864	32583	33842	
969	0	27920	32546	33877	
970	0	27892	32551	33892	
971	0	27912	32551	33837	
972	0	27861	32578	33799	
973	0	27842	32540	33824	
974	0	27840	32550	33838	
975	0	27828	32466	33835	
976	0	27848	32423	33848	
977	0	27844	32711	33776	
978	0	27856	32555	33876	
979	0	27840	32508	33916	
980	0	27876	32519	33922	
981	0	27896	32556	33908	
982	0	27864	32573	33892	
983	0	27956	32316	33976	
984	0	27904	32496	33906	
985	0	27904	32512	33900	
986	0	28816	32263	33942	
987	0	28844	32717	33941	
988	0	29548	32391	33538	
989	0	27926	32499	33932	
990	0	27270	32597	34019	
991	0	28434	32294	34151	
992	0	26864	32871	33927	
993	0	28418	32748	34007	
994	0	28824	32199	33927	
995	0	27366	33069	34176	
996	0	27818	32562	33899	
997	0	27779	32586	33904	
998	0	27914	32567	33835	
999	0	27832	32593	33792	
1000	0	27906	32669	33865	
1001	0	27826	32044	33908	
1002	0	27638	32711	33927	
1003	0	27952	32757	33732	
1004	0	27986	32796	33798	
1005	0	27719	32590	33855	
1006	0	27920	32429	33685	
1007	0	27850	32612	33658	
1008	0	27837	32647	33549	
1009	0	27880	32720	33571	
1010	0	27832	32626	33568	
1011	0	27628	32724	33430	
1012	0	27316	32745	33403	
1013	0	27843	32872	33405	
1014	0	28038	32296	33386	
1015	0	27128	32466	33245	
1016	0	28679	32088	33470	
1017	0	28437	32420	33488	
1018	0	27296	32666	33222	
1019	0	28600	32597	33548	
1020	0	27762	32359	33378	
1021	0	27720	32544	33331	
1022	0	27676	32605	33342	
1023	0	27776	32632	33275	
1024	0	27795	32571	33252	
1025	0	27768	32548	33287	
1026	0	27773	32659	33267	
1027	0	27764	32696	33265	
1028	0	27780	32562	33287	
1029	0	27808	32642	33287	
1030	0	27784	32640	33223	
1031	0	27740	32640	33257	
1032	0	27684	32432	33254	
1033	0	27746	32491	33284	
1034	0	27827	32464	33260	
1035	0	27800	32671	33202	
1036	0	27734	32589	33191	
1037	0	27764	32818	33220	
1038	0	27800	32784	33196	
1039	0	27784	32763	33172	
1040	0	27804	32768	33184	
1041	0	27812	32871	33174	
1042	0	27782	32854	33194	
1043	0	27754	32824	33197	
1044	0	27812	32898	33218	
1045	0	27788	32710	33214	
1046	0	27796	32775	33218	
1047	0	27833	32960	33213	
1048	0	27824	32583	33121	
1049	0	28178	32967	33198	
1050	0	27904	32427	32704	
1051	0	27848	32775	33313	
1052	0	28009	32977	33133	
1053	0	26450	32761	33122	
1054	0	27058	32755	32918	
1055	0	27586	32512	33148	
1056	0	27916	31791	33004	
1057	0	27856	32503	32999	
1058	0	27728	32646	33061	
1059	0	27820	32814	32976	
1060	0	27666	32490	33024	
1061	0	27736	32738	32976	
1062	0	27720	32790	32946	
1063	0	27752	32767	32953	
1064	0	27800	32647	32903	
1065	0	27756	32731	32903	
1066	0	27768	32528	33010	
1067	0	27704	32455	32803	
1068	0	27758	32992	32947	
1069	0	27792	32827	32956	
1070	0	27506	32223	32896	
1071	0	27730	32948	32935	
1072	0	27640	32703	33003	
1073	0	27728	32642	33009	
1074	0	27820	32967	33069	
1075	0	27634	32708	33064	
1076	0	27848	32999	33082	
1077	0	27876	33072	33134	
1078	0	27841	32851	33203	
1079	0	27856	32832	33159	
1080	0	27812	32847	33195	
1081	0	27720	32813	33285	
1082	0	27832	32694	33402	
1083	0	27737	32844	33365	
1084	0	26804	32696	33528	
1085	0	27732	32811	33458	
1086	0	27134	32754	33549	
1087	0	28760	32903	33597	
1088	0	27681	32900	33537	
1089	0	28420	32800	33671	
1090	0	27821	32741	33771	
1091	0	27784	32757	33786	
1092	0	27861	32739	33926	
1093	0	27278	32775	33890	
1094	0	28034	32647	33857	
1095	0	28964	32877	33818	
1096	0	27900	32647	33910	
1097	0	27927	32626	33900	
1098	0	27858	32690	33971	
1099	0	27974	32694	33840	
1100	0	27792	32694	33762	
1101	0	28304	32619	33700	
1102	0	27886	32701	33698	
1103	0	27762	32647	33695	
1104	0	27860	32680	33656	
1105	0	27804	32647	33668	
1106	0	27946	32711	33700	
1107	0	28248	32516	33683	
1108	0	27856	32605	33725	
1109	0	27880	32602	33708	
1110	0	27878	32750	33727	
1111	0	27872	32624	33759	
1112	0	27942	32496	33828	
1113	0	27737	32663	33840	
1114	0	27696	32623	33836	
1115	0	27924	32806	33892	
1116	0	27913	32692	33844	
1117	0	27972	32688	33894	
1118	0	28080	32760	33877	
1119	0	27924	32599	33902	
1120	0	27892	32658	33910	
1121	0	27868	32687	33863	
1122	0	27776	32605	34003	
1123	0	28610	32602	33062	
1124	0	27394	32869	33924	
1125	0	27616	32634	33684	
1126	0	28938	32589	33648	
1127	0	27978	32583	33551	
1128	0	27876	32558	33599	
1129	0	27878	32559	33461	
1130	0	27760	32610	33466	
1131	0	27732	32750	33336	
1132	0	27745	32735	33366	
1133	0	27704	32658	33414	
1134	0	27917	32474	33508	
1135	0	27772	32556	33452	
1136	0	28092	32462	33362	
1137	0	27520	32247	33313	
1138	0	27760	32591	33430	
1139	0	27962	32964	33816	
1140	0	28888	31936	33712	
1141	0	27450	32923	33272	
1142	0	25576	32812	33272	
1143	0	27720	32758	33456	
1144	0	27679	32810	33408	
1145	0	27732	32748	33394	
1146	0	27864	32766	33328	
1147	0	27828	32731	33312	
1148	0	27766	32746	33322	
1149	0	27782	32752	33287	
1150	0	27986	32775	33240	
1151	0	28344	32391	33420	
1152	0	26460	32828	33287	
1153	0	27804	32771	33226	
1154	0	27802	32723	33228	
1155	0	27674	32940	33172	
1156	0	27832	32864	33154	
1157	0	26816	33262	33287	
1158	0	27720	32830	33159	
1159	0	27395	32775	33148	
1160	0	27888	32848	33078	
1161	0	27868	32801	33177	
1162	0	27760	32704	33158	
1163	0	27638	32775	33272	
1164	0	27736	32788	33128	
1165	0	27872	32769	33104	
1166	0	27642	32920	32956	
1167	0	27720	32812	33107	
1168	0	27754	32828	33095	
1169	0	28626	32992	33028	
1170	0	26716	32683	33232	
1171	0	28297	32942	33017	
1172	0	27344	32826	33190	
1173	0	27790	32878	33008	
1174	0	27788	32880	33037	
1175	0	27748	32887	33064	
1176	0	27780	32864	33056	
1177	0	27755	32880	33005	
1178	0	27736	32886	33002	
1179	0	27696	32856	33062	
1180	0	27764	32919	32960	
1181	0	27738	32888	32989	
1182	0	28064	32967	32986	
1183	0	27224	32819	33062	
1184	0	27344	32899	32972	
1185	0	27792	32902	32937	
1186	0	27782	32911	32938	
1187	0	27708	32888	33128	
1188	0	27744	32918	32939	
1189	0	27732	32921	32912	
1190	0	27730	32903	32932	
1191	0	27752	32916	32931	
1192	0	27740	32912	32890	
1193	0	27800	32915	32872	
1194	0	27772	32915	32870	
1195	0	27737	32903	32863	
1196	0	27720	32886	32903	
1197	0	27728	32914	32866	
1198	0	27728	32903	32871	
1199	0	27752	32903	32849	
1200	0	27762	32903	32866	
1201	0	28302	32982	32835	
1202	0	27788	32967	32772	
1203	0	27393	33086	32812	
1204	0	27810	32806	32932	
1205	0	27774	32967	32834	
1206	0	27734	32902	32870	
1207	0	27758	32952	32838	
1208	0	27772	32973	32847	
1209	0	27748	32979	32848	
1210	0	27753	32967	32824	
1211	0	27764	32983	32820	
1212	0	27738	32962	32817	
1213	0	27744	32973	32816	
1214	0	27756	32967	32775	
1215	0	27780	32956	32810	
1216	0	27772	32979	32763	
1217	0	27766	32976	32746	
1218	0	27732	32956	32768	
1219	0	27724	32967	32767	
1220	0	28074	33006	32729	
1221	0	27744	32933	32742	
1222	0	27788	32989	32711	
1223	0	27764	32954	32724	
1224	0	27752	32965	32720	
1225	0	27768	32978	32740	
1226	0	27688	32984	32810	
1227	0	27748	32967	32711	
1228	0	27764	32967	32726	
1229	0	27730	32956	32702	
1230	0	27636	32967	32798	
1231	0	27739	32964	32711	
1232	0	27783	32980	32711	
1233	0	27748	32971	32704	
1234	0	27748	32967	32722	
1235	0	27744	32978	32722	
1236	0	27850	32891	32800	
1237	0	27737	32963	32720	
1238	0	27752	32998	32726	
1239	0	27756	32992	32727	
1240	0	27776	32967	32730	
1241	0	27764	32963	32742	
1242	0	27644	32952	32679	
1243	0	27900	32979	32768	
1244	0	28104	32695	32762	
1245	0	26816	33124	32658	
1246	0	27954	33019	32756	
1247	0	27752	32974	32720	
1248	0	27788	32963	32723	
1249	0	27712	32952	32707	
1250	0	27754	32951	32704	
1251	0	27754	32963	32715	
1252	0	27792	32973	32756	
1253	0	27760	32972	32711	
1254	0	27749	32982	32739	
1255	0	27757	32976	32720	
1256	0	27774	32960	32728	
1257	0	27762	32967	32741	
1258	0	27738	32984	32710	
1259	0	27718	32960	32715	
1260	0	27766	32957	32720	
1261	0	27760	32979	32695	
1262	0	27772	32954	32726	
1263	0	27852	32962	32736	
1264	0	27606	32940	32711	
1265	0	27776	32962	32752	
1266	0	27766	32974	32742	
1267	0	27752	32974	32711	
1268	0	27748	32979	32708	
1269	0	27754	32976	32706	
1270	0	27766	32962	32696	
1271	0	27754	32970	32726	
1272	0	27760	32962	32720	
1273	0	27752	32965	32736	
1274	0	27650	32966	32807	
1275	0	27784	32954	32701	
1276	0	27714	32967	32722	
1277	0	27772	32948	32671	
1278	0	27714	32964	33012	
1279	0	27816	32941	32720	
1280	0	27738	32917	32752	
1281	0	28416	32938	32647	
1282	0	27200	32978	32773	
1283	0	27718	32916	32711	
1284	0	34005	34016	29106	
1285	0	28258	32558	28179	
1286	0	27332	34982	32126	
1287	0	25104	32310	32734	
1288	0	27384	33189	32738	
1289	0	27212	32839	32422	
1290	0	25252	32154	32304	
1291	0	30733	34006	31680	
1292	0	25853	33640	32775	
1293	0	26644	33020	31716	
1294	0	25181	32492	31992	
1295	0	26308	33041	32088	
1296	0	27772	33232	31751	
1297	0	26750	33327	31543	
1298	0	21624	31282	31010	
1299	0	25052	33093	31427	
1300	0	24712	33171	31801	
1301	0	51017	34160	32041	
1302	0	22377	36372	41298	
1303	0	18482	34776	42173	
1304	0	30884	34586	24056	
1305	0	28436	34887	31355	
1306	0	27620	34130	36191	
1307	0	27301	33150	33287	
1308	0	28166	34242	30580	
1309	0	26759	33600	31589	
1310	0	28016	34283	33613	
1311	0	29688	33997	33298	
1312	0	26598	33346	31067	
1313	0	29850	33762	32482	
1314	0	27352	32615	32996	
1315	0	26189	33490	32970	
1316	0	28000	33254	34371	
1317	0	28320	33892	32487	
1318	0	27689	33867	32882	
1319	0	28136	33445	33191	
1320	0	27853	33732	32582	
1321	0	27920	33603	32756	
1322	0	28103	33599	32808	
1323	0	28024	33616	32754	
1324	0	27474	33704	32844	
1325	0	27836	33543	32854	
1326	0	27952	33504	32769	
1327	0	27705	33564	32729	
1328	0	28600	33618	32722	
1329	0	27910	33607	32715	
1330	0	27810	33614	32719	
1331	0	27738	33607	32675	
1332	0	27206	33839	32704	
1333	0	26842	33581	32738	
1334	0	28550	33764	32304	
1335	0	28184	33596	32859	
1336	0	27813	33587	32736	
1337	0	27840	33607	32729	
1338	0	27666	33486	32706	
1339	0	28220	33735	32688	
1340	0	27780	33486	32754	
1341	0	27880	33734	32704	
1342	0	27778	33651	32687	
1343	0	28146	33764	32728	
1344	0	27854	33607	32728	
1345	0	27849	33585	32742	
1346	0	27828	33574	32724	
1347	0	27640	33415	32820	
1348	0	27848	33607	32519	
1349	0	27896	33702	32676	
1350	0	27876	33606	32711	
1351	0	27690	33390	32775	
1352	0	27844	33644	32734	
1353	0	27838	33597	32732	
1354	0	27828	33561	32727	
1355	0	27853	33570	32734	
1356	0	27814	33554	32726	
1357	0	27940	33679	32740	
1358	0	27788	33548	32716	
1359	0	27892	33476	32792	
1360	0	27872	33625	32685	
1361	0	27800	33536	32730	
1362	0	27904	33685	32743	
1363	0	27728	33594	32707	
1364	0	27928	33602	32772	
1365	0	27826	33637	32701	
1366	0	27816	33570	32688	
1367	0	27808	33611	32711	
1368	0	27824	33543	32711	
1369	0	27772	33478	32715	
1370	0	27904	33667	32711	
1371	0	27828	33617	32711	
1372	0	27810	33584	32698	
1373	0	27812	33567	32708	
1374	0	27824	33565	32694	
1375	0	27838	33562	32720	
1376	0	27928	32967	32797	
1377	0	27826	33536	32680	
1378	0	27830	33615	32731	
1379	0	27824	33607	32688	
1380	0	27814	33598	32694	
1381	0	27830	33598	32694	
1382	0	27842	33538	32718	
1383	0	27824	33567	32716	
1384	0	27808	33570	32680	
1385	0	27929	33441	32728	
1386	0	27844	33712	32664	
1387	0	27816	33592	32708	
1388	0	27824	33571	32711	
1389	0	27824	33581	32740	
1390	0	27840	33568	32731	
1391	0	27826	33573	32724	
1392	0	27813	33565	32711	
1393	0	27826	33563	32704	
1394	0	27800	33576	32773	
1395	0	27810	33579	32698	
1396	0	27836	33567	32711	
1397	0	27826	33581	32711	
1398	0	27820	33580	32719	
1399	0	27840	33583	32711	
1400	0	27817	33606	32688	
1401	0	27820	33586	32710	
1402	0	27834	33593	32728	
1403	0	27848	33561	32697	
1404	0	27836	33584	32724	
1405	0	27826	33586	32694	
1406	0	27829	33583	32703	
1407	0	27810	33599	32708	
1408	0	27824	33600	32725	
1409	0	27840	33638	32733	
1410	0	27826	33587	32724	
1411	0	27788	33644	32718	
1412	0	27832	33547	32699	
1413	0	27846	33575	32704	
1414	0	27832	33586	32723	
1415	0	27762	33682	32752	
1416	0	27816	33588	32716	
1417	0	27821	33597	32700	
1418	0	27832	33603	32726	
1419	0	27844	33580	32694	
1420	0	27837	33581	32714	
1421	0	27828	33582	32711	
1422	0	27824	33578	32700	
1423	0	27826	33581	32714	
1424	0	27824	33588	32721	
1425	0	27848	33577	32717	
1426	0	27930	33746	32744	
1427	0	27820	33601	32692	
1428	0	27828	33592	32732	
1429	0	27826	33596	32704	
1430	0	27826	33594	32716	
1431	0	27840	33581	32722	
1432	0	27832	33583	32734	
1433	0	27834	33594	32743	
1434	0	27848	33607	32679	
1435	0	27840	33573	32708	
1436	0	27824	33587	32738	
1437	0	28044	33268	32711	
1438	0	27830	33561	32723	
1439	0	27744	33605	32964	
1440	0	27794	33680	32764	
1441	0	28080	33783	32727	
1442	0	27860	33607	32713	
1443	0	27830	33546	32753	
1444	0	27872	33632	32684	
1445	0	27822	33626	32754	
1446	0	27794	33555	32775	
1447	0	27828	33632	32706	
1448	0	27836	33543	32768	
1449	0	27988	33728	32633	
1450	0	27802	33543	32806	
1451	0	27817	33607	32831	
1452	0	27816	33573	32843	
1453	0	27844	33563	32854	
1454	0	27826	33552	32756	
1455	0	27820	33620	32775	
1456	0	27888	33671	32711	
1457	0	27748	33599	32900	
1458	0	27812	33581	32800	
1459	0	27812	33584	32866	
1460	0	27810	33561	32859	
1461	0	27812	33560	32869	
1462	0	27808	33575	32868	
1463	0	27816	33607	32863	
1464	0	27816	33524	32886	
1465	0	27844	33555	32926	
1466	0	27840	33561	32871	
1467	0	27824	33545	32920	
1468	0	27816	33563	32892	
1469	0	27834	33607	32909	
1470	0	27941	33698	32966	
1471	0	27832	33624	32955	
1472	0	28224	33488	33012	
1473	0	27716	33637	32888	
1474	0	27817	33574	33005	
1475	0	27986	33563	33030	
1476	0	28398	33472	33019	
1477	0	27904	33530	32937	
1478	0	27824	33543	32951	
1479	0	27986	33488	33110	
1480	0	27796	33522	32966	
1481	0	27410	33933	33003	
1482	0	27828	33730	32999	
1483	0	27852	33739	33008	
1484	0	27954	33573	33037	
1485	0	27796	33552	33031	
1486	0	27754	33624	33123	
1487	0	27876	33679	32989	
1488	0	27856	33652	33090	
1489	0	27808	33652	33075	
1490	0	27840	33589	33100	
1491	0	27846	33595	33137	
1492	0	27856	33650	33119	
1493	0	27856	33601	33172	
1494	0	27801	33772	33172	
1495	0	27832	33639	33182	
1496	0	27824	33641	33172	
1497	0	27840	33671	33170	
1498	0	27864	33659	33196	
1499	0	27896	33644	33195	
1500	0	27816	33604	33248	
1501	0	27856	33577	33247	
1502	0	27858	33773	33223	
1503	0	27880	33600	33216	
1504	0	27985	33670	33135	
1505	0	27842	33772	33257	
1506	0	27902	33685	33241	
1507	0	27858	33662	33302	
1508	0	27810	33750	33268	
1509	0	27912	33607	33350	
1510	0	27852	33522	33309	
1511	0	27866	33725	33287	
1512	0	27850	33756	33264	
1513	0	27828	33704	33338	
1514	0	27817	33755	33281	
1515	0	27928	33763	33279	
1516	0	27888	33684	33339	
1517	0	27880	33671	33351	
1518	0	27876	33755	33380	
1519	0	27880	33789	33407	
1520	0	27912	33778	33391	
1521	0	27868	33742	33415	
1522	0	27892	33693	33427	
1523	0	27975	33879	33381	
1524	0	27676	33747	33446	
1525	0	27913	33692	33536	
1526	0	27986	33734	33382	
1527	0	27957	33716	33464	
1528	0	27902	33669	33498	
1529	0	27945	33714	33484	
1530	0	27896	33671	33591	
1531	0	27884	33735	33580	
1532	0	27920	33735	33565	
1533	0	27945	33728	33552	
1534	0	27922	33698	33588	
1535	0	27952	33712	33616	
1536	0	27898	33759	33650	
1537	0	27916	33743	33621	
1538	0	27953	33706	33634	
1539	0	27980	33735	33652	
1540	0	27664	33828	33607	
1541	0	27964	33799	33671	
1542	0	27964	33914	33645	
1543	0	27852	33856	33735	
1544	0	28050	33799	33716	
1545	0	28050	33887	33652	
1546	0	27789	33772	33773	
1547	0	28064	33745	33701	
1548	0	27972	33747	33799	
1549	0	27908	33754	33799	
1550	0	28100	33854	33844	
1551	0	27973	33907	33706	
1552	0	28016	33754	33828	
1553	0	27960	33886	33809	
1554	0	27992	33922	33766	
1555	0	28013	33835	33839	
1556	0	27880	33819	33937	
1557	0	28038	33888	33784	
1558	0	28103	33898	33880	
1559	0	27968	33876	33949	
1560	0	27932	33784	33888	
1561	0	28024	33856	33924	
1562	0	27700	33840	33913	
1563	0	27776	33799	34036	
1564	0	27312	33799	34068	
1565	0	27514	33988	33884	
1566	0	28156	33836	33895	
1567	0	28332	33775	33978	
1568	0	28060	33872	34018	
1569	0	27308	33964	33999	
1570	0	27248	34082	33996	
1571	0	27556	34055	34010	
1572	0	28240	34240	34584	
1573	0	29000	33898	34430	
1574	0	29068	34052	34473	
1575	0	28664	34053	35258	
1576	0	27960	33936	35619	
1577	0	27390	33880	35564	
1578	0	27344	33863	35714	
1579	0	27526	33932	35754	
1580	0	27444	33906	35692	
1581	0	27064	34092	35606	
1582	0	26708	34240	35653	
1583	0	26450	34311	35716	
1584	0	26452	34388	35644	
1585	0	26662	34311	35499	
1586	0	27088	34213	35335	
1587	0	27384	34077	35288	
1588	0	27198	34023	35623	
1589	0	27012	33970	36070	
1590	0	27188	34048	36450	
1591	0	27504	33940	36448	
1592	0	27600	33731	36320	
1593	0	27456	33526	36542	
1594	0	27552	33338	36902	
1595	0	27958	33281	37044	
1596	0	28505	34156	36948	
1597	0	28762	33135	35335	
1598	0	29076	32942	34866	
1599	0	29112	32489	34695	
1600	0	29234	32218	34036	
1601	0	30599	31862	32352	
1602	0	32112	31595	31340	
1603	0	32064	31792	32032	
1604	0	30408	32263	33235	
1605	0	28528	32320	34106	
1606	0	27136	32644	35238	
1607	0	27306	32609	35360	
1608	0	28487	32315	34740	
1609	0	29322	31976	34378	
1610	0	29484	31770	34364	
1611	0	29472	31470	34390	
1612	0	30256	30540	34529	
1613	0	31764	29510	36039	
1614	0	32040	29298	38048	
1615	0	30628	29794	38599	
1616	0	29138	30385	37072	
1617	0	29280	30689	34356	
1618	0	30496	31431	31879	
1619	0	30296	32127	30080	
1620	0	26424	32626	31976	
1621	0	24121	32693	35136	
1622	0	24997	32210	35525	
1623	0	27316	31366	34668	
1624	0	25068	31913	41894	
1625	0	29464	32310	32301	
1626	0	31624	31012	27834	
1627	0	29256	30727	33031	
1628	0	29604	30525	36250	
1629	0	30320	30191	34726	
1630	0	26859	30499	35094	
1631	0	30564	30188	34262	
1632	0	30411	30551	34843	
1633	0	30180	30336	34718	
1634	0	30568	30452	33332	
1635	0	29362	30119	34052	
1636	0	29456	30314	34762	
1637	0	28542	30646	35008	
1638	0	28384	30418	34547	
1639	0	28368	30496	34823	
1640	0	28828	30314	34909	
1641	0	29752	30046	34908	
1642	0	28904	30265	35152	
1643	0	29132	29944	34474	
1644	0	28743	30356	34266	
1645	0	28378	30530	34414	
1646	0	27668	29933	34150	
1647	0	28452	29619	33771	
1648	0	28786	29986	33678	
1649	0	29850	30018	33223	
1650	0	27484	30580	35764	
1651	0	28956	30474	36174	
1652	0	28920	30663	35800	
1653	0	28730	30547	35936	
1654	0	29040	29532	35203	
1655	0	28952	29702	35201	
1656	0	28312	29428	36551	
1657	0	30874	29408	36423	
1658	0	28517	29972	38707	
1659	0	25176	32438	37319	
1660	0	27992	29252	31952	
1661	0	31312	29428	25702	
1662	0	30574	29278	29932	
1663	0	31128	29548	37703	
1664	0	31912	29447	40311	
1665	0	30916	29063	37208	
1666	0	30888	29221	34207	
1667	0	31751	29191	33189	
1668	0	32004	29063	34141	
1669	0	31040	29472	36295	
1670	0	30880	29326	36476	
1671	0	31382	29058	35474	
1672	0	31740	28935	35335	
1673	0	31664	28794	35676	
1674	0	31480	29286	36004	
1675	0	30956	29429	35335	
1676	0	30592	29490	35368	
1677	0	30632	29594	35756	
1678	0	30652	29605	35495	
1679	0	30411	29714	35052	
1680	0	30090	29504	35146	
1681	0	29722	30189	35500	
1682	0	29098	30453	35359	
1683	0	30170	29911	34642	
1684	0	30892	29831	34816	
1685	0	30421	30040	35456	
1686	0	29914	30072	35453	
1687	0	30112	30049	35305	
1688	0	30180	30004	35589	
1689	0	29896	30215	35948	
1690	0	29748	30332	35817	
1691	0	29916	30426	35410	
1692	0	29964	30549	35477	
1693	0	29858	30727	35746	
1694	0	29652	30795	35911	
1695	0	29412	30800	36163	
1696	0	29266	30826	36653	
1697	0	29272	30838	36802	
1698	0	29189	30855	36712	
1699	0	29166	30928	36807	
1700	0	29200	30992	36905	
1701	0	29052	30991	36838	
1702	0	28952	30936	36817	
1703	0	28908	30983	36940	
1704	0	29052	30919	36818	
1705	0	29008	30834	36698	
1706	0	29116	30727	36855	
1707	0	29440	30629	36807	
1708	0	29408	30570	36607	
1709	0	29380	30552	36565	
1710	0	29562	30495	36456	
1711	0	29860	30471	36216	
1712	0	30012	30583	35825	
1713	0	29984	30464	35589	
1714	0	30074	30502	35655	
1715	0	30148	30518	35620	
1716	0	30226	30606	35435	
1717	0	30200	30727	35444	
1718	0	30502	30674	35674	
1719	0	30380	30610	35938	
1720	0	30328	30704	36231	
1721	0	30240	30814	36436	
1722	0	29773	30919	36790	
1723	0	29592	30983	36871	
1724	0	29560	31117	36859	
1725	0	29456	31111	36902	
1726	0	29564	30887	37033	
1727	0	30208	30778	36947	
1728	0	30354	30840	36374	
1729	0	30052	30893	36162	
1730	0	30128	30982	36392	
1731	0	30082	30969	36294	
1732	0	29875	31020	36103	
1733	0	29933	30974	36212	
1734	0	30034	30967	36386	
1735	0	30134	30925	36380	
1736	0	30205	30864	36338	
1737	0	30188	30822	36521	
1738	0	30114	30842	36794	
1739	0	30004	30938	36800	
1740	0	29724	30957	36732	
1741	0	29668	30995	36743	
1742	0	29800	30909	36572	
1743	0	29842	30778	36623	
1744	0	30016	30674	36978	
1745	0	30284	30727	36978	
1746	0	30170	30799	36697	
1747	0	30077	30848	36892	
1748	0	30044	30902	37060	
1749	0	30052	30937	37037	
1750	0	30048	31008	36939	
1751	0	29916	31019	36999	
1752	0	30076	30806	36948	
1753	0	30512	30714	36768	
1754	0	29796	30960	37084	
1755	0	29690	31056	37332	
1756	0	29812	31367	36930	
1757	0	29596	31461	36288	
1758	0	29722	31431	36386	
1759	0	30064	31198	36679	
1760	0	30012	31190	36560	
1761	0	29868	31389	36405	
1762	0	29720	31353	36454	
1763	0	29696	31187	36601	
1764	0	29812	31094	36777	
1765	0	29580	31141	36767	
1766	0	29416	30851	36712	
1767	0	29528	31495	36182	
1768	0	29666	31486	36120	
1769	0	29732	31481	36268	
1770	0	29540	31517	36103	
1771	0	29740	31365	36039	
1772	0	29768	31282	36312	
1773	0	29661	31297	36658	
1774	0	29639	31256	36565	
1775	0	29612	31098	36626	
1776	0	29592	31111	37054	
1777	0	29644	31222	37264	
1778	0	29292	31067	36952	
1779	0	29452	31204	36778	
1780	0	29449	31198	36871	
1781	0	29456	31139	36848	
1782	0	29290	31270	36737	
1783	0	29270	31239	36769	
1784	0	29160	31191	36839	
1785	0	28773	31226	36521	
1786	0	29268	31239	36487	
1787	0	29428	31254	36653	
1788	0	29364	31340	36664	
1789	0	28990	31367	36359	
1790	0	29474	31440	36378	
1791	0	29240	31519	36380	
1792	0	29336	31544	36412	
1793	0	29156	31603	36261	
1794	0	29416	31596	36359	
1795	0	29216	31623	36196	
1796	0	29154	31678	35888	
1797	0	29264	31699	35963	
1798	0	29208	31709	35879	
1799	0	29172	31632	35588	
1800	0	29364	31490	35639	
1801	0	29314	31332	35865	
1802	0	29310	31192	35677	
1803	0	29428	31072	35660	
1804	0	29348	30959	35591	
1805	0	29624	30838	35772	
1806	0	29648	30744	35756	
1807	0	29660	30711	35719	
1808	0	29660	30592	35668	
1809	0	29703	30570	35634	
1810	0	29946	30528	35941	
1811	0	29662	30548	35840	
1812	0	29709	30610	35824	
1813	0	29575	30777	35847	
1814	0	29436	30898	35988	
1815	0	29117	31014	35940	
1816	0	29116	31111	35867	
1817	0	29044	31160	35963	
1818	0	29070	31172	35956	
1819	0	29130	31208	35916	
1820	0	29088	31280	35968	
1821	0	28980	31362	35950	
1822	0	28932	31413	35896	
1823	0	28964	31399	35886	
1824	0	29068	31322	36025	
1825	0	29044	31303	36167	
1826	0	29080	31277	36103	
1827	0	29104	31230	36038	
1828	0	29208	31182	36070	
1829	0	29344	31152	36140	
1830	0	29309	31149	36112	
1831	0	29304	31156	36098	
1832	0	29332	31093	36021	
1833	0	29424	31046	36052	
1834	0	29554	30983	36174	
1835	0	29528	30928	36190	
1836	0	29536	30974	36167	
1837	0	29548	30984	36066	
1838	0	29570	31002	35986	
1839	0	29696	31014	35926	
1840	0	29632	31008	36006	
1841	0	29590	31026	36100	
1842	0	29504	31085	35992	
1843	0	29472	31094	35847	
1844	0	29584	31104	35954	
1845	0	29574	31100	36009	
1846	0	29528	31102	36037	
1847	0	29550	31139	35997	
1848	0	29474	31141	35928	
1849	0	29528	31092	36000	
1850	0	29676	31088	36051	
1851	0	29673	31055	36140	
1852	0	29588	31053	36231	
1853	0	29552	31111	36208	
1854	0	29524	31102	36286	
1855	0	29504	31072	36447	
1856	0	29476	31047	36440	
1857	0	29492	31072	36295	
1858	0	29508	31058	36317	
1859	0	29496	31026	36452	
1860	0	29498	30998	36479	
1861	0	29506	30992	36391	
1862	0	29549	30990	36359	
1863	0	29575	30982	36396	
1864	0	29548	30960	36465	
1865	0	29680	30981	36412	
1866	0	29584	31033	36328	
1867	0	29577	30998	36399	
1868	0	29640	30973	36487	
1869	0	29586	31042	36397	
1870	0	29533	31077	36284	
1871	0	29556	31028	36407	
1872	0	29634	31013	36568	
1873	0	29672	31040	36532	
1874	0	29650	31047	36457	
1875	0	29744	30983	36480	
1876	0	29716	31026	36631	
1877	0	29634	30943	36713	
1878	0	29560	31021	36630	
1879	0	29513	30999	36649	
1880	0	29656	30943	36671	
1881	0	29724	30896	36644	
1882	0	29729	31002	36503	
1883	0	29845	30847	36247	
1884	0	29712	30907	36359	
1885	0	29404	30840	36487	
1886	0	29664	30832	36316	
1887	0	29977	30685	36249	
1888	0	30034	30471	36580	
1889	0	29624	30392	37236	
