# OpenSignals Text File Format
# {"00:07:80:3B:46:38": {"sensor": ["XYZ", "XYZ", "XYZ"], "device name": "00:07:80:3B:46:38", "column": ["nSeq", "DI", "x", "y", "z"], "sync interval": 2, "time": "16:17:57.162", "comments": "", "device connection": "BTH00:07:80:3B:46:38", "channels": [1, 2, 3], "date": "2016-6-30", "mode": 0, "digital IO": [0, 1], "firmware version": 772, "device": "biosignalsplux", "position": 0, "sampling rate": 100, "label": ["x", "y", "z"], "resolution": [16, 16, 16], "special": [{}, {}, {}]}}
# EndOfHeader
0	0	37216	31463	32680	
1	0	37353	31606	32775	
2	0	37736	31303	32861	
3	0	37864	31316	32647	
4	0	36726	30945	32858	
5	0	37432	31784	32534	
6	0	37456	31504	32862	
7	0	37172	32240	32569	
8	0	37409	31532	32732	
9	0	37106	31842	32455	
10	0	37568	31559	32745	
11	0	37712	31585	32566	
12	0	37474	31327	33050	
13	0	37624	31320	32644	
14	0	37304	31965	32684	
15	0	37548	31707	32538	
16	0	37574	31787	32620	
17	0	37644	31774	32653	
18	0	37432	31833	32684	
19	0	37538	31811	32655	
20	0	37505	31890	32680	
21	0	37952	31815	32985	
22	0	36920	32026	32212	
23	0	37576	31852	33074	
24	0	37296	31696	32711	
25	0	37344	31546	32711	
26	0	37152	31658	32896	
27	0	36795	31916	32512	
28	0	36984	31964	32529	
29	0	37394	32212	32804	
30	0	37308	32120	32742	
31	0	38016	32222	32725	
32	0	37754	32578	33040	
33	0	37572	32278	32624	
34	0	37592	32996	32794	
35	0	37444	32500	32721	
36	0	37092	32485	32549	
37	0	37082	32760	32578	
38	0	37292	32466	32426	
39	0	36920	32637	32749	
40	0	38020	32369	32775	
41	0	37616	32676	32356	
42	0	38278	32674	33504	
43	0	37334	32666	32376	
44	0	36826	33159	32668	
45	0	37882	32859	32666	
46	0	37818	32775	32592	
47	0	38056	32703	32196	
48	0	37228	32576	32580	
49	0	37510	32550	32597	
50	0	37584	32672	32632	
51	0	37576	32708	32627	
52	0	37586	32696	32595	
53	0	37858	32583	32636	
54	0	38781	31585	32694	
55	0	36810	33403	32408	
56	0	37912	32530	32509	
57	0	38344	31879	32745	
58	0	38552	31900	33124	
59	0	37059	32700	32872	
60	0	37008	33120	33157	
61	0	37344	32293	32792	
62	0	36892	32656	32976	
63	0	36824	32574	32749	
64	0	37240	32033	32757	
65	0	37890	33174	32443	
66	0	37628	32459	32480	
67	0	37920	32775	32680	
68	0	37664	32830	32582	
69	0	37452	32775	32608	
70	0	37478	32583	32519	
71	0	37392	32725	32583	
72	0	37440	32700	32592	
73	0	37506	32476	32647	
74	0	37528	32460	32647	
75	0	37545	32467	32608	
76	0	37544	32465	32639	
77	0	37508	32455	32642	
78	0	37504	32477	32644	
79	0	37542	32461	32616	
80	0	37544	32474	32645	
81	0	37548	32467	32593	
82	0	37540	32453	32612	
83	0	37544	32451	32632	
84	0	37524	32466	32602	
85	0	37538	32460	32647	
86	0	37544	32455	32647	
87	0	37540	32446	32640	
88	0	37584	32453	32621	
89	0	37528	32455	32645	
90	0	37536	32455	32632	
91	0	37532	32474	32583	
92	0	37528	32467	32646	
93	0	37533	32464	32634	
94	0	37532	32471	32632	
95	0	37544	32455	32625	
96	0	36256	32874	32601	
97	0	37742	32400	32588	
98	0	37533	32485	32610	
99	0	37498	32513	32695	
100	0	37560	32477	32632	
101	0	37692	32596	32672	
102	0	37580	32475	32607	
103	0	37590	32410	32629	
104	0	37648	32481	32684	
105	0	37517	32420	32641	
106	0	37368	32359	32572	
107	0	37720	32418	32749	
108	0	37324	32786	32708	
109	0	37556	32399	32672	
110	0	37788	32532	32775	
111	0	37500	32400	32639	
112	0	37556	32365	32640	
113	0	37776	32412	32655	
114	0	37264	32353	32564	
115	0	37504	32521	32662	
116	0	37548	32263	32666	
117	0	37560	32638	32647	
118	0	37512	32455	32679	
119	0	37516	32415	32652	
120	0	37542	32411	32658	
121	0	37532	32428	32634	
122	0	37520	32362	32708	
123	0	37536	32282	32626	
124	0	37532	32422	32695	
125	0	37664	32664	32574	
126	0	37452	32644	32647	
127	0	37540	32477	32668	
128	0	37808	32519	32698	
129	0	37510	32440	32612	
130	0	37558	32752	32636	
131	0	37493	32464	32655	
132	0	37604	32612	32637	
133	0	37536	32554	32631	
134	0	37571	32512	32686	
135	0	37596	32471	32640	
136	0	37492	32619	32632	
137	0	37488	32562	32662	
138	0	37556	32519	32640	
139	0	37545	32527	32662	
140	0	37594	32508	32612	
141	0	37544	32562	32647	
142	0	37544	32466	32596	
143	0	37560	32512	32624	
144	0	37540	32481	32666	
145	0	37536	32526	32620	
146	0	37544	32518	32639	
147	0	37544	32512	32640	
148	0	37540	32508	32626	
149	0	37544	32508	32602	
150	0	37724	32450	32608	
151	0	37260	32542	32617	
152	0	37467	32552	32644	
153	0	37605	32470	32612	
154	0	37408	32514	32640	
155	0	37532	32468	32624	
156	0	37544	32484	32636	
157	0	37532	32466	32634	
158	0	37568	32514	32633	
159	0	37520	32482	32641	
160	0	37946	32338	32703	
161	0	37177	32624	32628	
162	0	37476	32460	32658	
163	0	37528	32455	32642	
164	0	37544	32447	32646	
165	0	37542	32445	32647	
166	0	37532	32459	32658	
167	0	37540	32462	32656	
168	0	37526	32464	32646	
169	0	37537	32448	32656	
170	0	37540	32455	32654	
171	0	37544	32460	32652	
172	0	37548	32438	32647	
173	0	37548	32455	32688	
174	0	37528	32455	32670	
175	0	37556	32436	32656	
176	0	37556	32503	32570	
177	0	37480	32028	32618	
178	0	37324	32346	32702	
179	0	37446	32475	32608	
180	0	37536	32411	32638	
181	0	37536	32416	32672	
182	0	37540	32402	32672	
183	0	37536	32420	32658	
184	0	37554	32407	32643	
185	0	37524	32402	32647	
186	0	37528	32412	32663	
187	0	37540	32412	32627	
188	0	37516	32424	32672	
189	0	37520	32416	32677	
190	0	37544	32416	32647	
191	0	37528	32398	32670	
192	0	37524	32429	32672	
193	0	37548	32415	32632	
194	0	37544	32432	32650	
195	0	37545	32423	32647	
196	0	37524	32415	32656	
197	0	37536	32414	32660	
198	0	37536	32404	32643	
199	0	37524	32391	32663	
200	0	37556	32412	32662	
201	0	37548	32336	32640	
202	0	37618	32342	32604	
203	0	37512	32426	32665	
204	0	37336	32487	32647	
205	0	37620	32332	32606	
206	0	37464	32362	32728	
207	0	37712	32227	32601	
208	0	37572	32283	32612	
209	0	37572	32286	32610	
210	0	37528	32310	32612	
211	0	37514	32304	32647	
212	0	37510	32320	32642	
213	0	37536	32316	32624	
214	0	37524	32307	32619	
215	0	37525	32295	32644	
216	0	37516	32312	32620	
217	0	37528	32295	32628	
218	0	37520	32308	32642	
219	0	37524	32293	32632	
220	0	37528	32327	32653	
221	0	37520	32244	32572	
222	0	37532	32305	32644	
223	0	37520	32327	32660	
224	0	37536	32299	32626	
225	0	37510	32325	32654	
226	0	37528	32300	32652	
227	0	37520	32293	32652	
228	0	37540	32303	32629	
229	0	37520	32305	32636	
230	0	37504	32308	32656	
231	0	37510	32318	32621	
232	0	37488	32289	32656	
233	0	37520	32338	32659	
234	0	37484	32327	32681	
235	0	37540	32304	32638	
236	0	37540	32287	32632	
237	0	37604	32366	32577	
238	0	37492	32262	32634	
239	0	37530	32263	32617	
240	0	37520	32338	32669	
241	0	37584	32354	32647	
242	0	37522	32309	32646	
243	0	37506	32311	32647	
244	0	37516	32350	32647	
245	0	37520	32334	32660	
246	0	37536	32310	32647	
247	0	37520	32304	32668	
248	0	37540	32318	32644	
249	0	37505	32310	32686	
250	0	37632	32230	32692	
251	0	37452	32352	32661	
252	0	37432	32397	32677	
253	0	37664	32153	32691	
254	0	37580	32228	32692	
255	0	37445	32391	32647	
256	0	37412	32400	32736	
257	0	37484	32249	32763	
258	0	37514	32301	32734	
259	0	37501	32318	32711	
260	0	37550	32327	32697	
261	0	37496	32312	32717	
262	0	37432	32399	32688	
263	0	37504	32294	32708	
264	0	37514	32285	32710	
265	0	37540	32276	32660	
266	0	37608	32250	32656	
267	0	37540	32305	32672	
268	0	37496	32307	32645	
269	0	37510	32306	32642	
270	0	37484	32258	32647	
271	0	37540	32324	32672	
272	0	37536	32291	32664	
273	0	37544	32290	32654	
274	0	37480	32324	32658	
275	0	37550	32299	32640	
276	0	37528	32317	32667	
277	0	37536	32300	32646	
278	0	37529	32316	32642	
279	0	37536	32306	32628	
280	0	37520	32299	32672	
281	0	37522	32289	32670	
282	0	37524	32320	32706	
283	0	37511	32318	32682	
284	0	37524	32308	32665	
285	0	37537	32303	32672	
286	0	37528	32297	32656	
287	0	37528	32311	32631	
288	0	37465	32327	32674	
289	0	37540	32304	32635	
290	0	37530	32306	32647	
291	0	37510	32314	32661	
292	0	36642	29593	32724	
293	0	37764	32920	32516	
294	0	37624	31698	32767	
295	0	37383	32084	32684	
296	0	37517	32477	32660	
297	0	37526	32105	32733	
298	0	37612	32583	32726	
299	0	37618	32462	32647	
300	0	37510	32263	32644	
301	0	37474	32281	32682	
302	0	37498	32249	32696	
303	0	37656	32070	32679	
304	0	37512	32210	32692	
305	0	37469	32263	32696	
306	0	37568	32193	32696	
307	0	37432	32261	32726	
308	0	37484	32233	32743	
309	0	37516	32205	32710	
310	0	37504	32231	32694	
311	0	37536	32220	32688	
312	0	37516	32212	32698	
313	0	37508	32214	32699	
314	0	37492	32259	32703	
315	0	37476	32253	32688	
316	0	37496	32237	32715	
317	0	37616	32320	32740	
318	0	37500	32236	32673	
319	0	37536	32173	32706	
320	0	37496	32326	32642	
321	0	37525	32198	32683	
322	0	37536	32252	32646	
323	0	37554	32154	32658	
324	0	37532	32240	32640	
325	0	37496	32239	32647	
326	0	37469	32311	32632	
327	0	37512	32250	32627	
328	0	37524	32258	32654	
329	0	37504	32231	32653	
330	0	37538	32240	32647	
331	0	37518	32236	32658	
332	0	37508	32231	32641	
333	0	37460	32287	32612	
334	0	37508	32246	32666	
335	0	37516	32210	32669	
336	0	37528	32237	32658	
337	0	37508	32228	32652	
338	0	37510	32230	32669	
339	0	37506	32228	32647	
340	0	37549	32232	32672	
341	0	37521	32228	32630	
342	0	37511	32229	32604	
343	0	37504	32230	32658	
344	0	37510	32236	32642	
345	0	37499	32218	32664	
346	0	37520	32233	32656	
347	0	37506	32226	32656	
348	0	37540	32226	32613	
349	0	37524	32230	32640	
350	0	37528	32231	32618	
351	0	37476	32218	32662	
352	0	37508	32226	32666	
353	0	37528	32217	32728	
354	0	37332	32340	32628	
355	0	37600	32199	32626	
356	0	37511	32226	32675	
357	0	37524	32214	32660	
358	0	37432	32256	32672	
359	0	37532	32199	32655	
360	0	37520	32252	32670	
361	0	37528	32226	32666	
362	0	37512	32233	32672	
363	0	37498	32237	32692	
364	0	37506	32262	32675	
365	0	37544	32207	32624	
366	0	37504	32111	32689	
367	0	37493	32227	32673	
368	0	37544	32243	32654	
369	0	37532	32212	32656	
370	0	37636	32246	32608	
371	0	37728	32180	32692	
372	0	37624	32187	32710	
373	0	37332	32382	32704	
374	0	37540	32222	32704	
375	0	37458	32173	32738	
376	0	37218	32384	32682	
377	0	37273	32512	32614	
378	0	37656	32135	32683	
379	0	37560	31982	32679	
380	0	37600	32263	32696	
381	0	37682	32146	32624	
382	0	37860	32438	32891	
383	0	37476	32245	32679	
384	0	37608	32208	32664	
385	0	37592	32204	32639	
386	0	37520	32150	32705	
387	0	37492	32242	32710	
388	0	37469	32312	32678	
389	0	37476	32331	32688	
390	0	37524	32254	32666	
391	0	37520	32252	32665	
392	0	37536	32251	32690	
393	0	37520	32250	32671	
394	0	37528	32248	32656	
395	0	37824	32162	32576	
396	0	37506	32263	32662	
397	0	37796	32162	32638	
398	0	37452	32278	32717	
399	0	37520	32256	32688	
400	0	37560	32237	32646	
401	0	37532	32354	32633	
402	0	37532	32258	32690	
403	0	37482	32263	32664	
404	0	37860	32070	32711	
405	0	37552	32255	32624	
406	0	37580	32236	32716	
407	0	37544	32247	32711	
408	0	37296	32589	32615	
409	0	37416	32263	32754	
410	0	37540	32250	32716	
411	0	37545	32233	32668	
412	0	37466	32242	32754	
413	0	37512	32242	32750	
414	0	37500	32251	32727	
415	0	37510	32250	32745	
416	0	37528	32260	32742	
417	0	37464	32251	32705	
418	0	37490	32303	32756	
419	0	37658	32346	32736	
420	0	37548	32251	32716	
421	0	37496	32279	32751	
422	0	37524	32279	32720	
423	0	37416	32407	32660	
424	0	37336	32391	32762	
425	0	37460	32300	32722	
426	0	37756	32068	32692	
427	0	37544	32327	32804	
428	0	37536	32327	32760	
429	0	37568	32230	32678	
430	0	37532	32317	32723	
431	0	37604	32332	32710	
432	0	37560	34530	32044	
433	0	37348	31937	32903	
434	0	37620	33003	32554	
435	0	37100	32034	32734	
436	0	37632	31815	32658	
437	0	38129	32710	32398	
438	0	37676	31943	32691	
439	0	37004	31614	31766	
440	0	37082	31821	32914	
441	0	37460	32792	32639	
442	0	37424	32157	32868	
443	0	37421	32369	32714	
444	0	37520	32468	32839	
445	0	37592	32285	32834	
446	0	37621	31942	32862	
447	0	37832	31808	32880	
448	0	38068	32193	32960	
449	0	37959	31989	33050	
450	0	40440	31411	33902	
451	0	37394	33158	32864	
452	0	37314	31698	32859	
453	0	37208	32130	32775	
454	0	36256	32018	32903	
455	0	35472	32152	32859	
456	0	36704	31775	32932	
457	0	37178	31399	33045	
458	0	37104	31623	32928	
459	0	37312	31875	32677	
460	0	37568	31747	33192	
461	0	37488	31597	33037	
462	0	37257	31687	33004	
463	0	37576	31476	32881	
464	0	37383	31366	32942	
465	0	38228	30746	32601	
466	0	37108	31270	32997	
467	0	37312	30985	33144	
468	0	36616	31922	33001	
469	0	37992	30483	33160	
470	0	37644	31533	32662	
471	0	37328	30668	32646	
472	0	37378	31428	32895	
473	0	37348	30824	32890	
474	0	37800	31184	32664	
475	0	37856	31022	32929	
476	0	37428	31431	33006	
477	0	38741	30547	32984	
478	0	37450	29849	33824	
479	0	36504	30808	32928	
480	0	37344	30898	32754	
481	0	37046	29964	32384	
482	0	36842	30445	32042	
483	0	36560	31782	31612	
484	0	36742	31751	31266	
485	0	36832	31233	31698	
486	0	36728	31802	31303	
487	0	36560	30987	31629	
488	0	36986	30716	31306	
489	0	37110	30149	31216	
490	0	37020	30298	31524	
491	0	37085	30470	31589	
492	0	37282	30240	31494	
493	0	37580	30483	31266	
494	0	38236	30011	30457	
495	0	37808	29648	30068	
496	0	37276	30678	30146	
497	0	36359	30146	31268	
498	0	36120	31004	30773	
499	0	35948	30648	30482	
500	0	36124	30263	30086	
501	0	36686	29990	29946	
502	0	36652	29854	30506	
503	0	36359	30069	30745	
504	0	36421	29822	30328	
505	0	37072	29975	29570	
506	0	36808	30108	30136	
507	0	35940	30576	31128	
508	0	35104	30421	30855	
509	0	34510	30528	30926	
510	0	34334	30108	31140	
511	0	35448	29854	30228	
512	0	35004	29427	32742	
513	0	35216	29568	31410	
514	0	36136	30400	31348	
515	0	36606	29319	30438	
516	0	36871	29150	30668	
517	0	36266	28308	31574	
518	0	35608	29647	31713	
519	0	35132	30674	31359	
520	0	35198	30471	30918	
521	0	35472	29657	31288	
522	0	35532	29665	32057	
523	0	35424	30274	32028	
524	0	35882	30048	31854	
525	0	36057	29224	31652	
526	0	36146	29590	31630	
527	0	36432	30238	31831	
528	0	36720	30512	32023	
529	0	36816	31324	31908	
530	0	36850	31701	31400	
531	0	37128	31015	31175	
532	0	37202	31071	30790	
533	0	36976	31111	30824	
534	0	36948	30988	31013	
535	0	42608	27143	30710	
536	0	38763	31837	30163	
537	0	35632	34164	31485	
538	0	33170	33316	30970	
539	0	36740	32066	30772	
540	0	35772	31861	30175	
541	0	35462	32547	30958	
542	0	37024	31814	31296	
543	0	39000	32298	31276	
544	0	35888	33624	29892	
545	0	36574	33692	29844	
546	0	37670	33438	29779	
547	0	39008	32581	29618	
548	0	36160	33166	31396	
549	0	37200	33799	29757	
550	0	36324	33778	30795	
551	0	37088	33708	30467	
552	0	37208	33373	30518	
553	0	36304	31928	33940	
554	0	35892	34297	30349	
555	0	36994	34384	29727	
556	0	38016	33860	29503	
557	0	41991	31538	29892	
558	0	36593	32724	31100	
559	0	34036	34642	31039	
560	0	38044	32866	30500	
561	0	36964	32711	31849	
562	0	37112	33200	30983	
563	0	37508	33256	30482	
564	0	37318	33351	30324	
565	0	37161	33392	30057	
566	0	36992	32922	31332	
567	0	37272	32827	31225	
568	0	37138	33104	30616	
569	0	34104	32120	33727	
570	0	34722	33392	32240	
571	0	37298	33405	29828	
572	0	36359	33513	30324	
573	0	36186	33558	30395	
574	0	36964	33218	30324	
575	0	36826	32161	31922	
576	0	37466	31570	33086	
577	0	36170	33117	31484	
578	0	35418	33682	31031	
579	0	39408	29717	31290	
580	0	37894	31511	31239	
581	0	36976	33064	29668	
582	0	36699	33014	30248	
583	0	40724	29003	29024	
584	0	36487	32638	31192	
585	0	37048	32196	31361	
586	0	37432	32455	31206	
587	0	37190	32356	31619	
588	0	37637	31827	32370	
589	0	37408	31969	32391	
590	0	37150	32192	32416	
591	0	37528	32085	33628	
592	0	38842	31776	34749	
593	0	38688	31578	35879	
594	0	38216	31776	35408	
595	0	37320	32048	34324	
596	0	37412	31864	34233	
597	0	37556	31722	34182	
598	0	37044	31905	34377	
599	0	37136	32025	34276	
600	0	36960	32102	34474	
601	0	36576	32558	34364	
602	0	36920	32288	34593	
603	0	36444	32279	34759	
604	0	37588	32550	34162	
605	0	37600	32396	34572	
606	0	36516	33000	34160	
607	0	36870	32951	34336	
608	0	36916	33129	34422	
609	0	36986	33255	34119	
610	0	36776	33332	34036	
611	0	36871	33421	33890	
612	0	37163	33272	34113	
613	0	36642	33325	34407	
614	0	36688	33466	34170	
615	0	36880	33499	34503	
616	0	36925	33366	34750	
617	0	36936	33147	35077	
618	0	36904	33200	34790	
619	0	37010	33466	34179	
620	0	36968	33901	33657	
621	0	36992	33776	33934	
622	0	37156	33927	34492	
623	0	37260	33703	34240	
624	0	36842	33910	34528	
625	0	36742	34048	34655	
626	0	36908	33706	34375	
627	0	37040	33960	33607	
628	0	36944	34358	32738	
629	0	37776	34288	32583	
630	0	38312	33636	33084	
631	0	39592	32847	33712	
632	0	38800	32974	33556	
633	0	37889	33428	32534	
634	0	37736	33478	32135	
635	0	37672	33732	32108	
636	0	37568	34253	32154	
637	0	37273	34111	32327	
638	0	37324	33648	32487	
639	0	37440	33689	32073	
640	0	37328	33629	31985	
641	0	37306	33728	32228	
642	0	37176	33602	32421	
643	0	37064	33354	32352	
644	0	36856	33574	32150	
645	0	37728	33731	32468	
646	0	37703	34044	32312	
647	0	36824	33869	32421	
648	0	37412	33399	32223	
649	0	37944	33415	32041	
650	0	37532	33668	31717	
651	0	38048	33695	32212	
652	0	37944	33859	32678	
653	0	38080	33612	33008	
654	0	37962	33600	33006	
655	0	37728	33702	32872	
656	0	37528	33543	32893	
657	0	37736	33746	32711	
658	0	37383	33782	32674	
659	0	37400	33647	32504	
660	0	37456	33499	32508	
661	0	37336	33473	32514	
662	0	37488	33442	32489	
663	0	37328	33932	32551	
664	0	37500	33744	32730	
665	0	37688	33657	32700	
666	0	37624	33746	32598	
667	0	37620	33696	32500	
668	0	37588	33605	32551	
669	0	37728	33411	32811	
670	0	37492	33458	32408	
671	0	37618	33526	32364	
672	0	37736	33632	32524	
673	0	37888	33365	32548	
674	0	37988	33408	32838	
675	0	37300	33410	32798	
676	0	37216	33686	32626	
677	0	36172	33120	34166	
678	0	37800	34158	31645	
679	0	36984	33625	32438	
680	0	37664	30022	37206	
681	0	37447	35446	31450	
682	0	37586	34095	31792	
683	0	37496	34140	32368	
684	0	37144	33991	31888	
685	0	37372	34183	32108	
686	0	37314	34307	32356	
687	0	37314	34002	32246	
688	0	37341	33878	32256	
689	0	37352	33892	32360	
690	0	37320	33876	32169	
691	0	37536	33783	32140	
692	0	37476	33832	32328	
693	0	37266	34035	32658	
694	0	37744	34091	32088	
695	0	37895	33948	32396	
696	0	38160	34037	32389	
697	0	38150	33864	32502	
698	0	37308	34386	32048	
699	0	37392	34797	32028	
700	0	37432	33742	32360	
701	0	37380	33942	32408	
702	0	37360	34041	32368	
703	0	37368	34059	32274	
704	0	37284	34175	32086	
705	0	37432	34055	32354	
706	0	37096	34227	32319	
707	0	37560	34349	32077	
708	0	37284	33958	32349	
709	0	37008	34439	31728	
710	0	37336	34327	32039	
711	0	37444	34183	32144	
712	0	36843	34396	32204	
713	0	37394	33960	32297	
714	0	37792	33765	32442	
715	0	37525	33671	32634	
716	0	37026	34062	32461	
717	0	36888	34119	32324	
718	0	37128	33840	32451	
719	0	37688	33799	33186	
720	0	36854	32918	32620	
721	0	37236	34034	32498	
722	0	37040	34361	32376	
723	0	36829	34140	32263	
724	0	37452	33858	32315	
725	0	37464	34487	32130	
726	0	37144	33780	32152	
727	0	37176	33906	32327	
728	0	38012	33863	32389	
729	0	38194	33479	32428	
730	0	38568	34123	32216	
731	0	37998	34175	32263	
732	0	37520	33989	32409	
733	0	37916	34001	32312	
734	0	37420	34145	32408	
735	0	37360	33723	32498	
736	0	37272	33992	32408	
737	0	37352	33960	32452	
738	0	37372	34023	32458	
739	0	37404	34041	32420	
740	0	37516	34107	32327	
741	0	37584	33996	32342	
742	0	37720	33874	32727	
743	0	36584	33616	32800	
744	0	38016	34455	32498	
745	0	36470	34694	32461	
746	0	36885	34096	32564	
747	0	37356	33936	32583	
748	0	37432	33887	32545	
749	0	37490	33830	32584	
750	0	36924	34181	32512	
751	0	36792	32900	32613	
752	0	37673	34039	32447	
753	0	37484	32455	32683	
754	0	38026	34875	32348	
755	0	37860	33549	32509	
756	0	37724	33275	32500	
757	0	37556	33713	32484	
758	0	36988	34013	32420	
759	0	37096	34343	32248	
760	0	37176	33426	32600	
761	0	37179	33176	32679	
762	0	37208	34254	32536	
763	0	36818	33385	32340	
764	0	37413	32983	32452	
765	0	37810	34136	32370	
766	0	37917	33159	32404	
767	0	37458	33572	32516	
768	0	37464	33863	32391	
769	0	37620	34924	32184	
770	0	37960	34913	32346	
771	0	37736	34386	32380	
772	0	37593	34176	32430	
773	0	37292	33494	32442	
774	0	37319	34151	32336	
775	0	37256	34096	32443	
776	0	36968	33767	32374	
777	0	37868	34600	32510	
778	0	37620	34016	32536	
779	0	37516	34342	32397	
780	0	37698	34031	32549	
781	0	37616	34106	32498	
782	0	37728	33627	32748	
783	0	37588	33708	32413	
784	0	36704	34919	32405	
785	0	37224	33730	32736	
786	0	37482	34663	32476	
787	0	37536	33438	32530	
788	0	37266	34710	32477	
789	0	37383	34290	32481	
790	0	37372	34284	32498	
791	0	37348	34246	32512	
792	0	37304	34345	32475	
793	0	37378	34252	32514	
794	0	37380	34360	32525	
795	0	37380	34502	32511	
796	0	37305	34114	32364	
797	0	37296	34149	32488	
798	0	37288	33189	32327	
799	0	36944	34356	32336	
800	0	34136	36686	34121	
801	0	36717	30545	33055	
802	0	37920	31665	32356	
803	0	37422	31703	32745	
804	0	38772	30550	32300	
805	0	37340	31426	32720	
806	0	37370	31478	32664	
807	0	37340	31500	32678	
808	0	37420	31539	32647	
809	0	37340	31484	32704	
810	0	37328	31471	32664	
811	0	37368	31516	32708	
812	0	37312	31506	32682	
813	0	37352	31442	32740	
814	0	37344	31507	32697	
815	0	37383	31460	32653	
816	0	37352	31484	32656	
817	0	37300	31532	32647	
818	0	37242	31544	32677	
819	0	37236	31589	32698	
820	0	37212	31614	32670	
821	0	36992	31862	32639	
822	0	37120	31783	32636	
823	0	37721	31420	32696	
824	0	37466	31426	32679	
825	0	37484	31802	32604	
826	0	37456	31922	32596	
827	0	37648	32052	32685	
828	0	37296	31894	32614	
829	0	37856	32452	32647	
830	0	37368	31836	32711	
831	0	37408	31706	32608	
832	0	37554	31687	32647	
833	0	37319	32250	32594	
834	0	36948	32370	32650	
835	0	37520	32400	32512	
836	0	38018	32199	32647	
837	0	37588	32056	32647	
838	0	37704	32607	32551	
839	0	37608	31784	32528	
840	0	37636	32237	32577	
841	0	37641	32444	32506	
842	0	37640	32536	32560	
843	0	37818	32610	32571	
844	0	37596	32775	32576	
845	0	37604	32427	32583	
846	0	37533	32474	32571	
847	0	37480	32382	32574	
848	0	37434	32413	32626	
849	0	37556	32350	32583	
850	0	37468	32388	32640	
851	0	37576	32385	32606	
852	0	37504	32381	32628	
853	0	37520	32364	32602	
854	0	37480	32432	32644	
855	0	37516	32368	32600	
856	0	37280	32365	32391	
857	0	37666	32003	32486	
858	0	37308	32372	32477	
859	0	37352	32422	32647	
860	0	37568	32239	32699	
861	0	37544	32558	32601	
862	0	37672	32566	32620	
863	0	37308	32443	32572	
864	0	37548	32432	32689	
865	0	37532	32472	32683	
866	0	37522	32193	32617	
867	0	37544	32462	32610	
868	0	37614	32506	32666	
869	0	37640	32512	32640	
870	0	37504	32432	32640	
871	0	37496	32455	32614	
872	0	37449	32359	32637	
873	0	38356	31602	31402	
874	0	36406	32828	33453	
875	0	37428	32516	32654	
876	0	37600	32246	32716	
877	0	37536	32566	32640	
878	0	37420	32506	32742	
879	0	37632	32248	32662	
880	0	37978	32755	33049	
881	0	38752	32323	31878	
882	0	36580	31994	33314	
883	0	36632	32748	32292	
884	0	37536	32061	33009	
885	0	37280	33316	32775	
886	0	36976	32391	32707	
887	0	37348	32440	32745	
888	0	37796	32839	32790	
889	0	37536	32224	32736	
890	0	37440	32443	32583	
891	0	37862	32252	32658	
892	0	37856	32334	32770	
893	0	37288	32434	32528	
894	0	37446	32415	32775	
895	0	37556	32658	32768	
896	0	37560	32559	32723	
897	0	37634	32485	32659	
898	0	37524	32511	32754	
899	0	37766	32697	32729	
900	0	37456	32720	32768	
901	0	37548	32560	32799	
902	0	37596	32583	32775	
903	0	37600	32633	32775	
904	0	38172	33010	32685	
905	0	37016	32198	32720	
906	0	38082	32635	32768	
907	0	37188	32044	33063	
908	0	37576	32647	32850	
909	0	37046	32082	32800	
910	0	37604	32498	32624	
911	0	37314	32740	32722	
912	0	37580	32876	32720	
913	0	37284	32135	33058	
914	0	37576	32592	32813	
915	0	37744	33550	32440	
916	0	37318	32331	32992	
917	0	37492	32609	32839	
918	0	37544	32615	32834	
919	0	37554	32626	32839	
920	0	37460	32734	32859	
921	0	37624	32640	32868	
922	0	37472	32640	32860	
923	0	37545	32591	32836	
924	0	37584	32630	32823	
925	0	37868	32848	32659	
926	0	37776	32631	32736	
927	0	37736	32619	32773	
928	0	37460	32628	32830	
929	0	38176	32135	32894	
930	0	37370	32570	32731	
931	0	37464	32477	32864	
932	0	37588	32664	32775	
933	0	37532	32642	32809	
934	0	37482	32612	32854	
935	0	37556	32587	32820	
936	0	37545	32581	32797	
937	0	37528	32614	32806	
938	0	37552	32480	32816	
939	0	37520	32596	32775	
940	0	37511	32547	32788	
941	0	37370	32646	32794	
942	0	37508	32770	32754	
943	0	37580	32444	32786	
944	0	37534	32711	32772	
945	0	37352	32677	32740	
946	0	38188	32090	32868	
947	0	38200	32888	32768	
948	0	37577	32600	32711	
949	0	37454	32599	32748	
950	0	37586	32615	32711	
951	0	37511	32608	32701	
952	0	37450	32675	32659	
953	0	37424	32506	32706	
954	0	37592	32645	32666	
955	0	37708	32621	32652	
956	0	37584	32654	32647	
957	0	37408	32548	32653	
958	0	37460	32733	32738	
959	0	37620	32647	32724	
960	0	37564	32644	32697	
961	0	37306	32704	32679	
962	0	37712	32647	32718	
963	0	37656	32679	32700	
964	0	37529	32696	32704	
965	0	37275	32769	32658	
966	0	37628	32656	32734	
967	0	37664	32699	32662	
968	0	37568	32731	32700	
969	0	37572	32698	32668	
970	0	37576	32859	32642	
971	0	37522	32745	32701	
972	0	37576	32739	32711	
973	0	37540	32728	32680	
974	0	37540	32743	32718	
975	0	37544	32742	32680	
976	0	37548	32732	32704	
977	0	37575	32738	32704	
978	0	37584	32734	32706	
979	0	37572	32747	32656	
980	0	37560	32720	32666	
981	0	37544	32739	32720	
982	0	37560	32738	32694	
983	0	37524	32711	32702	
984	0	37568	32732	32680	
985	0	37584	32706	32676	
986	0	37560	32720	32674	
987	0	37596	32732	32693	
988	0	37552	32775	32676	
989	0	37552	32724	32708	
990	0	37700	32769	32633	
991	0	37468	32647	32688	
992	0	37476	32647	32639	
993	0	37724	32810	32672	
994	0	37576	32711	32709	
995	0	37612	32749	32632	
996	0	37560	32706	32690	
997	0	37584	32758	32658	
998	0	37545	32738	32681	
999	0	37556	32745	32682	
1000	0	37548	32732	32660	
1001	0	37510	32720	32711	
1002	0	37568	32747	32687	
1003	0	37548	32722	32698	
1004	0	37548	32757	32704	
1005	0	37544	32738	32644	
1006	0	37712	32736	32606	
1007	0	37553	32756	32678	
1008	0	37672	32749	32685	
1009	0	37568	32775	32681	
1010	0	37549	32764	32701	
1011	0	37584	32739	32647	
1012	0	37544	32792	32698	
1013	0	37554	32745	32660	
1014	0	37568	32775	32647	
1015	0	37556	32769	32676	
1016	0	37560	32758	32674	
1017	0	37528	32756	32664	
1018	0	37928	32740	32666	
1019	0	37626	32775	32655	
1020	0	37544	32786	32706	
1021	0	37330	32800	32698	
1022	0	37400	32798	32643	
1023	0	37596	32807	32652	
1024	0	37638	32808	32642	
1025	0	37540	32775	32652	
1026	0	37540	32836	32698	
1027	0	37548	32808	32687	
1028	0	37563	32816	32682	
1029	0	37556	32808	32656	
1030	0	37552	32832	32656	
1031	0	37540	32825	32682	
1032	0	37548	32834	32692	
1033	0	37478	32799	32738	
1034	0	37578	32813	32636	
1035	0	37556	32816	32658	
1036	0	37552	32708	32621	
1037	0	37540	32818	32664	
1038	0	37572	32824	32685	
1039	0	37536	32818	32685	
1040	0	37564	32839	32671	
1041	0	37540	32806	32625	
1042	0	37554	32828	32655	
1043	0	37572	32821	32647	
1044	0	37560	32824	32639	
1045	0	37545	32818	32642	
1046	0	37568	32824	32668	
1047	0	37568	32822	32639	
1048	0	37532	32834	32682	
1049	0	37560	32797	32694	
1050	0	37556	32828	32662	
1051	0	37669	32727	32572	
1052	0	37498	32775	32716	
1053	0	37572	32836	32647	
1054	0	37532	32850	32680	
1055	0	37552	32818	32658	
1056	0	37564	32818	32653	
1057	0	37548	32824	32671	
1058	0	37568	32820	32692	
1059	0	37552	32808	32634	
1060	0	37560	32804	32688	
1061	0	37588	32810	32676	
1062	0	37554	32829	32646	
1063	0	37498	32711	32738	
1064	0	37540	32806	32678	
1065	0	37554	32825	32665	
1066	0	37556	32813	32662	
1067	0	37554	32824	32656	
1068	0	37556	32818	32676	
1069	0	37544	32827	32688	
1070	0	37576	32831	32672	
1071	0	37536	32839	32647	
1072	0	37700	32808	32647	
1073	0	37536	32815	32660	
1074	0	37564	32821	32702	
1075	0	37625	32722	32656	
1076	0	37548	32754	32672	
1077	0	37424	32775	32706	
1078	0	37545	32766	32679	
1079	0	37584	32768	32692	
1080	0	37588	32769	32694	
1081	0	37508	32742	32662	
1082	0	37560	32765	32688	
1083	0	37572	32811	32713	
1084	0	37590	32775	32680	
1085	0	37514	32800	32669	
1086	0	37548	32773	32680	
1087	0	37596	32731	32671	
1088	0	37552	32784	32671	
1089	0	37528	32775	32647	
1090	0	37552	32738	32720	
1091	0	37604	32802	32647	
1092	0	37616	32795	32658	
1093	0	37609	32818	32592	
1094	0	37684	32823	32532	
1095	0	37996	32903	32362	
1096	0	39268	32744	30904	
1097	0	31808	20979	37575	
1098	0	37746	32583	32726	
1099	0	37080	32912	33275	
1100	0	37736	32690	32858	
1101	0	37368	32830	33095	
1102	0	37496	32962	33112	
1103	0	37560	32762	32997	
1104	0	37572	32918	33008	
1105	0	37520	32860	33046	
1106	0	37669	32832	32967	
1107	0	37584	32856	33048	
1108	0	37548	32885	33065	
1109	0	37511	32803	33030	
1110	0	37450	32832	33100	
1111	0	37456	32870	33080	
1112	0	37440	32872	33090	
1113	0	37520	32733	33028	
1114	0	37716	32880	32990	
1115	0	37170	32627	32980	
1116	0	37520	32738	32974	
1117	0	37572	32758	32912	
1118	0	37664	32533	33056	
1119	0	36208	31848	33664	
1120	0	36796	29345	34328	
1121	0	44824	34798	30040	
1122	0	36230	33100	33030	
1123	0	35596	32336	32242	
1124	0	36456	31191	32612	
1125	0	37704	31537	32647	
1126	0	37376	31527	32749	
1127	0	37360	31318	32915	
1128	0	37464	31396	32732	
1129	0	37260	31346	32771	
1130	0	37948	32044	32598	
1131	0	37353	31785	32775	
1132	0	37168	31747	32890	
1133	0	37408	31602	32872	
1134	0	37424	31516	32816	
1135	0	37302	31505	32775	
1136	0	37378	31616	32756	
1137	0	37328	31487	32692	
1138	0	37306	31519	32738	
1139	0	37340	31440	32678	
1140	0	37476	31602	32775	
1141	0	37300	31468	32852	
1142	0	37336	31510	32801	
1143	0	37360	31483	32802	
1144	0	37328	31558	32890	
1145	0	37564	31138	32824	
1146	0	37563	30912	33138	
1147	0	37640	32308	32500	
1148	0	37282	31239	32935	
1149	0	37412	31558	32775	
1150	0	37277	31139	32941	
1151	0	37572	32427	32573	
1152	0	37442	31546	32794	
1153	0	37332	31566	32775	
1154	0	37348	31581	32835	
1155	0	37138	31798	32552	
1156	0	37600	31517	32794	
1157	0	37248	31303	32999	
1158	0	37498	31513	32775	
1159	0	37338	31495	32766	
1160	0	37344	31540	32756	
1161	0	37116	31472	32450	
1162	0	37452	31509	32748	
1163	0	37430	31569	32749	
1164	0	37392	31588	32818	
1165	0	37388	31602	32775	
1166	0	37392	31589	32798	
1167	0	37165	31495	32820	
1168	0	37740	31777	32726	
1169	0	37403	31588	32832	
1170	0	37412	31592	32828	
1171	0	37410	31554	32820	
1172	0	37332	31590	32804	
1173	0	37336	31587	32816	
1174	0	37382	31580	32819	
1175	0	37325	31568	32788	
1176	0	37383	31545	32826	
1177	0	37344	31546	32816	
1178	0	37356	31532	32804	
1179	0	37368	31556	32819	
1180	0	37362	31559	32846	
1181	0	37400	31544	32775	
1182	0	37442	31541	32775	
1183	0	37312	31559	32850	
1184	0	37432	31549	32769	
1185	0	37440	31504	32775	
1186	0	37280	31596	32775	
1187	0	37316	31584	32758	
1188	0	37328	31509	32828	
1189	0	37368	31504	32801	
1190	0	37349	31524	32809	
1191	0	37364	31512	32775	
1192	0	37383	31596	32819	
1193	0	37368	31610	32820	
1194	0	37388	31533	32820	
1195	0	37400	31517	32746	
1196	0	37362	31555	32766	
1197	0	37360	31568	32775	
1198	0	37372	31477	32775	
1199	0	37371	31576	32752	
1200	0	37388	31540	32773	
1201	0	37396	31551	32754	
1202	0	37368	31536	32852	
1203	0	37396	31567	32767	
1204	0	37344	31597	32788	
1205	0	37360	31558	32773	
1206	0	37382	31536	32799	
1207	0	37312	31568	32850	
1208	0	37428	31519	32775	
1209	0	37392	31522	32802	
1210	0	37380	31501	32775	
1211	0	37314	31592	32775	
1212	0	37380	31578	32795	
1213	0	37378	31458	32775	
1214	0	37336	31567	32756	
1215	0	37352	31562	32763	
1216	0	37360	31521	32796	
1217	0	37383	31497	32775	
1218	0	37372	31527	32773	
1219	0	37356	31576	32775	
1220	0	37372	31495	32775	
1221	0	37370	31506	32736	
1222	0	37383	31562	32772	
1223	0	37376	31550	32775	
1224	0	37340	31530	32775	
1225	0	37346	31512	32720	
1226	0	37336	31495	32742	
1227	0	37424	31526	32720	
1228	0	37348	31565	32775	
1229	0	37360	31527	32756	
1230	0	37409	31532	32754	
1231	0	37410	31504	32756	
1232	0	37352	31570	32765	
1233	0	37368	31530	32788	
1234	0	37336	31532	32772	
1235	0	36668	30098	32870	
1236	0	37529	31664	32642	
1237	0	37280	31434	32812	
1238	0	38040	32464	32528	
1239	0	37380	31487	32775	
1240	0	37652	32004	32720	
1241	0	37332	31468	32828	
1242	0	37578	32061	32662	
1243	0	37354	31509	32801	
1244	0	37400	31739	32896	
1245	0	37338	31468	32818	
1246	0	37340	31512	32793	
1247	0	37337	31489	32816	
1248	0	37382	31451	32808	
1249	0	37332	31512	32816	
1250	0	37356	31478	32842	
1251	0	37324	31473	32800	
1252	0	37304	31555	32824	
1253	0	37273	31546	32762	
1254	0	37306	31516	32805	
1255	0	37584	31458	32726	
1256	0	37370	31509	32754	
1257	0	37016	32135	32769	
1258	0	37244	31495	32692	
1259	0	37344	31586	32761	
1260	0	37528	31270	32774	
1261	0	37328	31590	32752	
1262	0	37314	31172	32792	
1263	0	37332	31414	32692	
1264	0	37468	31595	32689	
1265	0	37368	31351	32704	
1266	0	37370	31453	32699	
1267	0	37376	31559	32655	
1268	0	37368	31604	32692	
1269	0	37398	31529	32695	
1270	0	37368	31772	32766	
1271	0	37312	31616	32734	
1272	0	37220	31642	32700	
1273	0	37450	31584	32806	
1274	0	37796	31750	32664	
1275	0	37260	31447	32694	
1276	0	37344	31623	32718	
1277	0	37872	32212	32647	
1278	0	37383	31524	32766	
1279	0	37324	31468	32701	
1280	0	37462	31548	32683	
1281	0	37767	32324	32676	
1282	0	37368	31580	32738	
1283	0	37536	31683	32698	
1284	0	37421	31733	32697	
1285	0	37356	31564	32735	
1286	0	37382	31572	32725	
1287	0	37383	31568	32705	
1288	0	37364	31571	32692	
1289	0	37336	31544	32699	
1290	0	37980	31846	32624	
1291	0	37208	31446	32720	
1292	0	37412	31547	32623	
1293	0	36968	31323	32678	
1294	0	37068	31216	32711	
1295	0	38022	31925	32616	
1296	0	36968	31225	32738	
1297	0	37604	31696	32634	
1298	0	37976	32182	32672	
1299	0	37217	31469	32804	
1300	0	37904	31932	32677	
1301	0	37478	31710	32770	
1302	0	37774	31836	32711	
1303	0	37440	31583	32772	
1304	0	37380	31604	32771	
1305	0	37392	31575	32728	
1306	0	37398	31556	32730	
1307	0	37444	31651	32658	
1308	0	37306	31484	32601	
1309	0	37748	31101	32258	
1310	0	40064	31175	31233	
1311	0	35192	28706	36596	
1312	0	37712	31072	32460	
1313	0	36964	31890	33287	
1314	0	37337	31620	33009	
1315	0	37236	31714	33120	
1316	0	36189	31098	33090	
1317	0	37392	31360	33166	
1318	0	36740	31081	33094	
1319	0	37613	31617	33055	
1320	0	38132	32212	32936	
1321	0	37458	31847	32976	
1322	0	37408	31842	32993	
1323	0	37352	31870	33030	
1324	0	37392	31814	32943	
1325	0	37434	31964	32995	
1326	0	37420	31789	32903	
1327	0	37394	31879	32867	
1328	0	38018	32029	32969	
1329	0	33528	30312	33542	
1330	0	37532	31749	33037	
1331	0	37404	31751	32706	
1332	0	37336	31862	32864	
1333	0	36514	31548	33548	
1334	0	36294	31019	34758	
1335	0	40588	34870	29383	
1336	0	37300	31284	33192	
1337	0	38312	32953	32263	
1338	0	37394	31788	32796	
1339	0	38010	31842	32682	
1340	0	37488	31343	32704	
1341	0	37511	31792	32798	
1342	0	37113	31552	32798	
1343	0	37383	31517	32745	
1344	0	37304	31998	32775	
1345	0	37128	31606	32820	
1346	0	37318	31396	32848	
1347	0	37624	32822	32455	
1348	0	37320	31667	32880	
1349	0	37292	31687	32870	
1350	0	37392	31674	32856	
1351	0	37376	31644	32864	
1352	0	37252	31651	32873	
1353	0	37352	31695	32935	
1354	0	37328	31702	32902	
1355	0	37383	31680	32842	
1356	0	37408	31736	32775	
1357	0	37416	31716	32757	
1358	0	37417	31714	32806	
1359	0	37376	31706	32775	
1360	0	37424	31703	32760	
1361	0	37451	31632	32728	
1362	0	37528	31571	32686	
1363	0	37344	31583	32701	
1364	0	37420	31644	32743	
1365	0	37404	31662	32754	
1366	0	37370	31687	32745	
1367	0	37408	31668	32711	
1368	0	37383	31681	32744	
1369	0	37410	31666	32749	
1370	0	37426	31635	32732	
1371	0	37412	31660	32749	
1372	0	37426	31646	32756	
1373	0	37432	31655	32759	
1374	0	37424	31703	32740	
1375	0	37376	31710	32766	
1376	0	37417	31682	32773	
1377	0	37402	31681	32762	
1378	0	37408	31677	32765	
1379	0	37394	31680	32754	
1380	0	37410	31672	32751	
1381	0	37400	31648	32768	
1382	0	37407	31674	32761	
1383	0	37392	31679	32774	
1384	0	37370	31677	32802	
1385	0	37424	31672	32764	
1386	0	37410	31654	32764	
1387	0	37400	31664	32743	
1388	0	37416	31673	32749	
1389	0	37378	31697	32745	
1390	0	37376	31644	32775	
1391	0	37352	31674	32750	
1392	0	37416	31672	32766	
1393	0	37382	31717	32724	
1394	0	37412	31660	32760	
1395	0	38215	31408	32718	
1396	0	37176	31682	32828	
1397	0	37328	31808	32727	
1398	0	37398	31656	32775	
1399	0	37383	31623	32746	
1400	0	37449	31634	32762	
1401	0	37620	31546	32786	
1402	0	37318	31649	32775	
1403	0	37344	31632	32775	
1404	0	37400	31638	32767	
1405	0	37392	31595	32756	
1406	0	37408	31613	32775	
1407	0	37324	31649	32749	
1408	0	37350	31618	32750	
1409	0	37580	32031	32748	
1410	0	37370	31510	32754	
1411	0	37376	31617	32710	
1412	0	37404	31604	32743	
1413	0	37400	31616	32771	
1414	0	37376	31597	32738	
1415	0	37383	31616	32730	
1416	0	37383	31588	32770	
1417	0	37398	31611	32744	
1418	0	37383	31608	32736	
1419	0	37383	31608	32761	
1420	0	37392	31614	32758	
1421	0	37390	31588	32722	
1422	0	37382	31603	32758	
1423	0	37381	31606	32750	
1424	0	37376	31586	32744	
1425	0	37406	31598	32756	
1426	0	37394	31604	32775	
1427	0	37408	31597	32740	
1428	0	37378	31607	32792	
1429	0	37368	31621	32773	
1430	0	37368	31623	32784	
1431	0	37380	31603	32775	
1432	0	37376	31612	32749	
1433	0	37400	31608	32744	
1434	0	37268	31647	32935	
1435	0	37383	31596	32742	
1436	0	37378	31617	32756	
1437	0	37392	31587	32753	
1438	0	37392	31587	32736	
1439	0	37380	31588	32732	
1440	0	37392	31592	32775	
1441	0	37382	31604	32760	
1442	0	37420	31612	32743	
1443	0	37360	31598	32755	
1444	0	37396	31582	32762	
1445	0	37392	31596	32769	
1446	0	37360	31634	32825	
1447	0	37396	31604	32756	
1448	0	37368	31590	32733	
1449	0	37360	31582	32772	
1450	0	37383	31597	32748	
1451	0	37370	31593	32730	
1452	0	37368	31421	32775	
1453	0	37608	32000	32379	
1454	0	37612	31900	33174	
1455	0	37104	31111	32837	
1456	0	37388	32211	32699	
1457	0	37356	31392	32880	
1458	0	37658	31504	32960	
1459	0	37224	31568	32881	
1460	0	37320	31523	32825	
1461	0	37340	31476	32825	
1462	0	37398	31448	32887	
1463	0	37290	31419	32820	
1464	0	37344	31456	32802	
1465	0	37348	31467	32822	
1466	0	37352	31496	32806	
1467	0	37216	31530	32834	
1468	0	37296	31474	32868	
1469	0	37354	31456	32832	
1470	0	37338	31477	32834	
1471	0	37352	31492	32824	
1472	0	37357	31464	32839	
1473	0	37338	31467	32820	
1474	0	37338	31477	32839	
1475	0	37304	31674	32824	
1476	0	37400	31476	32812	
1477	0	37416	31384	32755	
1478	0	37378	31362	32766	
1479	0	37352	31423	32763	
1480	0	37383	31458	32755	
1481	0	37332	31464	32802	
1482	0	37344	31475	32788	
1483	0	37318	31456	32813	
1484	0	37362	31457	32773	
1485	0	37328	31452	32768	
1486	0	37330	31459	32770	
1487	0	37348	31458	32775	
1488	0	37344	31511	32800	
1489	0	37314	31472	32760	
1490	0	37362	31451	32763	
1491	0	37346	31452	32775	
1492	0	37356	31432	32789	
1493	0	37340	31436	32824	
1494	0	37368	31622	32816	
1495	0	37304	31447	32762	
1496	0	37340	31458	32802	
1497	0	37330	31470	32807	
1498	0	37332	31458	32827	
1499	0	37352	31438	32802	
1500	0	37341	31459	32807	
1501	0	37341	31444	32802	
1502	0	37383	31522	32796	
1503	0	37323	31582	32720	
1504	0	37344	31431	32798	
1505	0	37314	31390	32765	
1506	0	37344	31448	32775	
1507	0	37368	31440	32750	
1508	0	37362	31463	32759	
1509	0	37352	31463	32738	
1510	0	37373	31457	32769	
1511	0	37344	31412	32760	
1512	0	37312	31504	32822	
1513	0	37345	31468	32792	
1514	0	37348	31446	32802	
1515	0	37330	31500	32771	
1516	0	37392	31479	32773	
1517	0	37352	31460	32753	
1518	0	37352	31438	32818	
1519	0	37330	31446	32772	
1520	0	37352	31448	32811	
1521	0	37330	31462	32758	
1522	0	37345	31457	32793	
1523	0	37376	31442	32804	
1524	0	37344	31470	32788	
1525	0	37344	31463	32775	
1526	0	37308	31447	32750	
1527	0	37300	31440	32775	
1528	0	37481	32198	32667	
1529	0	37568	31079	32816	
1530	0	37352	31393	32788	
1531	0	37321	31424	32739	
1532	0	37360	31423	32768	
1533	0	37276	31553	32775	
1534	0	37412	31378	32729	
1535	0	37276	31314	32755	
1536	0	37440	31514	32761	
1537	0	37420	31928	32701	
1538	0	37008	30667	33004	
1539	0	37402	31424	32736	
1540	0	37400	31537	32709	
1541	0	37344	31362	32732	
1542	0	37376	31250	32788	
1543	0	37290	31403	32775	
1544	0	37328	31413	32775	
1545	0	37344	31366	32775	
1546	0	37321	31367	32775	
1547	0	37244	31410	32798	
1548	0	37353	31376	32807	
1549	0	37328	31380	32775	
1550	0	37354	31388	32810	
1551	0	37312	31398	32848	
1552	0	37304	31444	32832	
1553	0	37298	31401	32836	
1554	0	37319	31393	32838	
1555	0	37336	31350	32798	
1556	0	37338	31393	32826	
1557	0	37328	31393	32792	
1558	0	37326	31402	32806	
1559	0	37328	31400	32835	
1560	0	37524	31430	32898	
1561	0	37304	31388	32760	
1562	0	37312	31402	32828	
1563	0	37304	31367	32805	
1564	0	37304	31431	32816	
1565	0	37280	31398	32762	
1566	0	37330	31431	32813	
1567	0	37344	31366	32789	
1568	0	37366	31342	32826	
1569	0	37336	31386	32775	
1570	0	37328	31403	32814	
1571	0	37331	31385	32775	
1572	0	37319	31376	32811	
1573	0	37326	31378	32788	
1574	0	37318	31403	32819	
1575	0	37362	31430	32762	
1576	0	37200	31372	32894	
1577	0	37560	31480	32680	
1578	0	37308	31316	32888	
1579	0	37280	31379	32807	
1580	0	37316	31399	32807	
1581	0	37306	31382	32809	
1582	0	37323	31376	32836	
1583	0	37326	31372	32775	
1584	0	37354	31380	32806	
1585	0	37319	31376	32806	
1586	0	37296	31426	32816	
1587	0	37314	31394	32823	
1588	0	37318	31388	32818	
1589	0	37304	31375	32818	
1590	0	37319	31391	32809	
1591	0	37308	31385	32801	
1592	0	37306	31403	32814	
1593	0	37320	31380	32804	
1594	0	37344	31367	32769	
1595	0	37336	31367	32786	
1596	0	37042	31598	32888	
1597	0	37345	31349	32793	
1598	0	37319	31376	32813	
1599	0	37319	31378	32820	
1600	0	37312	31370	32870	
1601	0	37318	31364	32819	
1602	0	37264	31329	32832	
1603	0	37336	31372	32808	
1604	0	37324	31367	32809	
1605	0	37266	31340	32794	
1606	0	37352	31384	32795	
1607	0	37330	31318	32824	
1608	0	37314	31367	32815	
1609	0	37284	31367	32813	
1610	0	37328	31346	32812	
1611	0	37248	31375	32760	
1612	0	37332	31321	32834	
1613	0	37308	31335	32790	
1614	0	37169	31750	32820	
1615	0	37624	30884	32769	
1616	0	37348	31270	32738	
1617	0	37360	31270	32767	
1618	0	37312	31297	32769	
1619	0	37288	31292	32762	
1620	0	37284	31301	32770	
1621	0	37290	31282	32766	
1622	0	37304	31303	32797	
1623	0	37292	31297	32812	
1624	0	37244	31458	32775	
1625	0	37400	31214	32717	
1626	0	37318	31257	32792	
1627	0	37296	31180	32808	
1628	0	37296	31136	32824	
1629	0	37256	31290	32788	
1630	0	37282	31272	32818	
1631	0	37273	31239	32807	
1632	0	37314	31277	32807	
1633	0	37272	31268	32790	
1634	0	37304	31270	32802	
1635	0	37288	31266	32806	
1636	0	37370	31318	32796	
1637	0	37218	31291	32788	
1638	0	37319	31174	32775	
1639	0	37280	31226	32807	
1640	0	37265	31239	32768	
1641	0	37276	31226	32775	
1642	0	37288	31232	32763	
1643	0	37272	31236	32817	
1644	0	37304	31209	32784	
1645	0	37254	31238	32775	
1646	0	37272	31239	32800	
1647	0	37264	31201	32795	
1648	0	37392	31635	32583	
1649	0	37282	31216	32775	
