# OpenSignals Text File Format
# {"00:07:80:3B:46:38": {"sensor": ["EMG", "EMG", "EMG", "EMG", "XYZ", "XYZ", "XYZ"], "device name": "00:07:80:3B:46:38", "column": ["nSeq", "DI", "FL", "BL", "FR", "BR", "Z", "Y", "X"], "sync interval": 2, "time": "14:3:42.531", "comments": "", "device connection": "BTH00:07:80:3B:46:38", "channels": [1, 2, 3, 4, 6, 7, 8], "date": "2016-6-24", "mode": 0, "digital IO": [0, 1], "firmware version": 772, "device": "biosignalsplux", "position": 0, "sampling rate": 100, "label": ["FL", "BL", "FR", "BR", "Z", "Y", "X"], "resolution": [16, 16, 16, 16, 16, 16, 16], "special": [{}, {}, {}, {}, {}, {}, {}]}}
# EndOfHeader
0	0	32813	31495	32571	32389	36340	29383	32914	
1	0	32864	32538	32510	32947	36339	29370	32925	
2	0	32879	32391	32586	32014	36352	29398	32903	
3	0	32588	32913	32728	33195	36359	29405	32926	
4	0	32632	32336	32841	32415	36346	29408	32947	
5	0	32600	32998	32528	33011	36359	29398	32955	
6	0	32496	32408	32747	33259	36324	29404	32948	
7	0	32943	32163	32231	32226	36328	29395	32933	
8	0	32560	32604	32642	32588	36319	29387	32920	
9	0	32438	32263	32459	33275	36338	29376	32930	
10	0	32621	32453	32487	32521	36329	29380	32919	
11	0	32968	32567	32647	32381	36306	29376	32929	
12	0	33113	32491	32579	32261	36329	29396	32925	
13	0	32898	33345	32560	34303	36326	29388	32935	
14	0	32948	32338	32839	32742	36342	29398	32935	
15	0	32912	32416	32872	31662	36321	29389	32935	
16	0	32664	33565	32217	33266	36338	29394	32930	
17	0	32492	32431	32525	33001	36344	29396	32939	
18	0	32579	32550	32891	32586	36370	29408	32927	
19	0	32600	32966	32890	33052	36382	29398	32927	
20	0	33440	32413	32485	33005	36336	29389	32935	
21	0	32468	32947	32710	33383	36355	29408	32925	
22	0	32632	32391	32800	32504	36359	29410	32927	
23	0	32714	32775	32640	32286	36359	29402	32935	
24	0	32880	33195	32935	32614	36380	29411	32907	
25	0	32603	32849	32739	32494	36318	29407	32933	
26	0	32890	33399	32422	32144	36343	29412	32922	
27	0	32672	32432	33021	32535	36374	29391	32920	
28	0	33420	32896	32684	33641	36359	29392	32915	
29	0	32432	32627	32823	32455	36343	29389	32903	
30	0	32604	32141	32452	32876	36321	29399	32928	
31	0	32720	32911	32608	32695	36335	29402	32929	
32	0	33216	32487	32749	32801	36346	29392	32944	
33	0	32978	32640	32513	32226	36333	29367	32921	
34	0	32848	32711	32802	32487	36336	29382	32914	
35	0	33153	32529	32550	31987	36343	29382	32933	
36	0	32490	32512	32674	32893	36343	29395	32921	
37	0	32592	33078	32750	32405	36332	29383	32916	
38	0	32340	33575	32716	33106	36335	29395	32906	
39	0	32768	32455	32322	32389	36329	29366	32918	
40	0	33362	33569	32743	33867	36351	29383	32937	
41	0	32674	33255	32436	32642	36357	29375	32926	
42	0	33004	31751	32658	32604	36355	29380	32927	
43	0	33052	32423	32694	32640	36342	29387	32923	
44	0	32749	32459	32647	31926	36346	29386	32923	
45	0	32839	32775	32695	32813	36324	29381	32938	
46	0	32921	33344	32655	32821	36320	29383	32952	
47	0	32484	32052	32756	34183	36323	29389	32954	
48	0	32856	32376	32679	32510	36302	29396	32948	
49	0	32502	32578	32551	33007	36341	29383	32951	
50	0	32643	32589	32604	32711	36333	29379	32952	
51	0	32920	32217	32296	32485	36350	29423	32940	
52	0	32514	31835	32487	32194	36378	29415	32967	
53	0	32542	32278	32509	32321	36323	29401	32978	
54	0	32830	32161	32775	32594	36343	29392	32950	
55	0	32986	32358	32516	31963	36340	29388	32943	
56	0	32604	32457	32519	32519	36359	29400	32947	
57	0	32963	33004	32281	32707	36351	29394	32962	
58	0	32834	32857	32699	32967	36325	29391	32951	
59	0	32815	32156	32468	32727	36359	29398	32935	
60	0	32530	32283	32519	32864	36347	29396	32929	
61	0	32626	32692	32692	32876	36345	29383	32959	
62	0	33176	32647	32485	32822	36347	29406	32914	
63	0	32426	31911	32405	32217	36347	29402	32928	
64	0	32493	32838	32324	33016	36327	29395	32946	
65	0	32541	32751	32806	32045	36376	29415	32920	
66	0	32872	33327	32727	32872	36326	29413	32919	
67	0	33018	33285	32387	34175	36354	29410	32919	
68	0	32670	32682	32683	32471	36359	29393	32924	
69	0	32425	31414	32571	32775	36319	29394	32926	
70	0	32466	32434	32572	32685	36333	29383	32931	
71	0	32531	32562	32775	32429	36324	29391	32935	
72	0	32720	32743	32718	32874	36342	29388	32929	
73	0	32638	32499	32589	33555	36323	29396	32940	
74	0	32756	32627	32413	32717	36348	29387	32942	
75	0	32507	32211	32363	31988	36331	29395	32923	
76	0	32540	33135	32566	33247	36332	29403	32942	
77	0	33089	32215	32471	32684	36343	29395	32967	
78	0	32420	32375	32646	32659	36351	29383	32960	
79	0	32569	32878	32578	32510	36359	29378	32980	
80	0	32775	32775	32805	32768	36335	29395	32939	
81	0	32926	32389	32772	33618	36354	29417	32945	
82	0	32854	32425	32662	32381	36329	29394	32955	
83	0	32719	32749	32711	32773	36351	29379	32946	
84	0	32738	32460	32631	34219	36347	29377	32943	
85	0	32346	33052	32372	32352	36353	29403	32937	
86	0	32698	32887	32600	32559	36336	29373	32952	
87	0	33184	32638	32445	34183	36346	29394	32936	
88	0	32937	33919	32754	32135	36320	29383	32945	
89	0	32548	32950	32550	33112	36311	29394	32948	
90	0	32937	32123	32707	32665	36338	29390	32951	
91	0	32711	32019	32798	32689	36349	29383	32948	
92	0	32832	32067	32103	32745	36335	29389	32946	
93	0	32736	32065	32607	33287	36372	29391	32941	
94	0	32946	32442	32561	32691	36333	29371	32953	
95	0	32740	32680	32573	32818	36323	29392	32951	
96	0	32608	32609	32426	32560	36332	29394	32943	
97	0	33024	32223	32477	31611	36338	29380	32946	
98	0	32742	31503	32802	32887	36304	29378	32962	
99	0	32464	32322	32608	32578	36338	29374	32958	
100	0	33202	32416	32666	32931	36327	29383	32945	
101	0	32905	32412	32441	33416	36354	29367	32978	
102	0	32812	32547	32543	33184	36334	29396	32963	
103	0	32838	32673	32583	33399	36343	29385	32962	
104	0	32816	32578	32528	32307	36329	29388	32941	
105	0	32840	34101	32647	32449	36333	29389	32955	
106	0	32555	32419	32562	33014	36326	29418	32947	
107	0	32647	32225	32979	31751	36326	29393	32936	
108	0	32852	33853	32539	32920	36318	29383	32962	
109	0	32994	32497	32455	32532	36330	29383	32935	
110	0	32504	32562	32542	32672	36331	29394	32923	
111	0	32890	32447	32688	32159	36331	29399	32935	
112	0	32768	33867	32701	32820	36339	29390	32946	
113	0	33130	32336	32732	32240	36342	29407	32930	
114	0	32960	32690	32575	34416	36333	29391	32938	
115	0	32966	32546	32560	32292	36319	29402	32938	
116	0	32730	32696	32602	33030	36320	29383	32934	
117	0	32532	32567	32519	32787	36327	29388	32945	
118	0	33157	33510	32417	32857	36333	29374	32937	
119	0	33034	31447	32518	32870	36329	29383	32951	
120	0	32775	33116	32558	32690	36339	29374	32946	
121	0	32856	32244	32583	34123	36332	29383	32936	
122	0	32612	32694	32487	32769	36307	29379	32941	
123	0	32600	32480	32583	33133	36293	29374	32945	
124	0	32445	32470	32738	31814	36315	29375	32943	
125	0	32729	32578	32642	32873	36297	29348	32954	
126	0	32845	33243	32534	32434	36311	29350	32943	
127	0	32784	32311	32513	32309	36359	29366	32971	
128	0	32647	32871	32615	32846	36327	29387	32947	
129	0	32528	32470	32464	32701	36315	29382	32947	
130	0	32806	32286	32775	32206	36320	29387	32898	
131	0	32662	32859	32581	32949	36302	29375	32948	
132	0	32589	32617	32535	32521	36295	29380	32962	
133	0	32748	33045	32438	32704	36317	29346	32941	
134	0	32596	31920	32503	33063	36335	29422	32954	
135	0	32632	32567	32814	33004	36323	29383	32939	
136	0	32806	34089	32656	32167	36334	29387	32946	
137	0	33440	32758	32775	32759	36315	29370	32953	
138	0	32398	32321	32751	32643	36322	29379	32951	
139	0	32880	32483	32470	33522	36313	29367	32955	
140	0	32968	32763	32566	32451	36320	29351	32971	
141	0	32687	32615	32685	33542	36304	29369	32955	
142	0	32942	33027	32421	32889	36302	29362	32955	
143	0	32856	33813	32483	32503	36303	29368	32954	
144	0	32831	32359	32570	32623	36314	29395	32935	
145	0	33125	31771	32731	32970	36327	29395	32935	
146	0	32967	32118	32521	33391	36326	29389	32943	
147	0	32954	31927	32349	33231	36333	29391	32938	
148	0	32828	33135	32647	30794	36313	29383	32952	
149	0	32626	33287	32607	32999	36315	29395	32962	
150	0	32800	32615	32775	32836	36326	29386	32954	
151	0	32556	32631	32580	32374	36339	29401	32954	
152	0	32569	32423	32325	32678	36320	29400	32955	
153	0	32878	33157	32800	32940	36359	29398	32951	
154	0	32360	32729	32746	31936	36359	29375	32971	
155	0	32614	32027	32774	32890	36350	29383	32967	
156	0	32736	32548	32498	32738	36342	29399	32944	
157	0	32650	33683	32667	32656	36338	29407	32967	
158	0	32775	32333	32662	32831	36359	29405	32969	
159	0	32775	32593	32597	31621	36336	29401	32966	
160	0	32519	32189	32622	32745	36357	29409	32963	
161	0	32974	33386	32903	33129	36384	29429	32951	
162	0	32960	32491	33217	33671	36354	29409	32949	
163	0	32585	32615	32672	32094	36335	29407	32951	
164	0	32432	32821	32508	34025	36354	29383	32967	
165	0	32672	32263	32404	32346	36359	29407	32941	
166	0	32916	32653	32453	33019	36343	29403	32939	
167	0	32962	32417	32706	32583	36342	29401	32944	
168	0	33108	32629	32498	32048	36357	29397	32942	
169	0	32802	32643	32423	33415	36343	29403	32951	
170	0	32728	32793	32715	32287	36335	29414	32936	
171	0	32490	32623	32671	33334	36371	29397	32938	
172	0	32389	31958	32474	32450	36348	29390	32927	
173	0	32716	33075	32538	34189	36314	29396	32927	
174	0	32840	32135	32615	32452	36359	29403	32941	
175	0	32624	32994	32489	32876	36333	29385	32962	
176	0	32669	32215	32583	32484	36326	29396	32937	
177	0	32668	33206	32472	31901	36333	29390	32951	
178	0	32798	32635	32561	33013	36303	29385	32962	
179	0	32648	32615	32796	32421	36325	29400	32958	
180	0	32235	31547	33071	32865	36336	29409	32955	
181	0	33304	32775	33107	32339	36326	29403	32951	
182	0	32339	33597	32617	32411	36317	29404	32952	
183	0	32810	33402	32492	33554	36334	29383	32973	
184	0	32455	32454	32647	32701	36327	29385	32981	
185	0	32510	32363	32543	32799	36350	29385	32991	
186	0	32588	32953	32764	31618	36338	29414	32967	
187	0	32924	33094	32511	32868	36342	29398	32979	
188	0	32748	33014	32796	32706	36340	29391	33003	
189	0	32800	32949	32952	32425	36323	29398	32983	
190	0	32518	32832	32669	33500	36335	29411	32983	
191	0	32942	32576	32775	32455	36305	29421	32978	
192	0	32612	32749	32406	32555	36327	29409	32986	
193	0	32492	32172	32934	31580	36355	29425	32977	
194	0	32586	32839	32653	31766	36334	29429	32967	
195	0	32318	32419	32491	32751	36359	29447	32979	
196	0	32770	33979	32599	33061	36359	29422	32976	
197	0	32575	32573	32727	32196	36355	29435	32994	
198	0	32814	32422	32697	32375	36359	29419	33015	
199	0	32492	32855	32543	32884	36359	29423	32991	
200	0	33100	32665	32958	32696	36388	29410	33014	
201	0	32804	32735	32635	32485	36392	29437	33005	
202	0	32921	32627	32491	32786	36358	29446	33012	
203	0	32720	32525	32957	32694	36324	29466	32999	
204	0	32726	32743	32367	32775	36352	29484	32990	
205	0	32840	31931	32744	32984	36331	29452	33003	
206	0	32824	32169	32740	32593	36359	29463	32982	
207	0	32837	33655	32511	32634	36352	29452	32998	
208	0	32784	32770	32527	33019	36396	29434	32992	
209	0	32356	32114	32717	32668	36359	29431	32996	
210	0	32700	32287	32753	32692	36368	29458	32999	
211	0	32400	32751	32687	33042	36391	29447	33010	
212	0	32612	32874	32720	32770	36395	29427	33035	
213	0	33014	32573	32363	32680	36344	29455	33012	
214	0	32576	32798	32659	32610	36352	29426	33025	
215	0	32876	32464	32754	32822	36345	29437	33042	
216	0	32740	33236	32954	32645	36370	29443	33016	
217	0	32527	34069	32666	33046	36302	29431	33014	
218	0	32608	32569	32514	32600	36327	29425	32997	
219	0	32390	33040	32551	32607	36327	29423	32991	
220	0	32512	32283	32628	32514	36306	29416	32983	
221	0	32717	32510	32634	32109	36302	29415	33005	
222	0	32784	33137	32665	32027	36315	29406	32998	
223	0	32665	32716	32451	32866	36358	29412	33005	
224	0	32992	32447	32811	32759	36381	29427	33023	
225	0	32744	32478	32610	33033	36378	29416	33075	
226	0	32889	32681	32903	33063	36350	29414	33093	
227	0	32900	31815	32509	32505	36348	29394	33083	
228	0	32834	32730	32434	33016	36322	29395	33065	
229	0	32636	33069	32560	32680	36330	29378	33030	
230	0	32800	32409	32867	32541	36286	29367	32995	
231	0	32704	32828	32634	32357	36315	29392	32978	
232	0	33118	34700	32702	32636	36355	29395	33014	
233	0	32718	32518	32625	32889	36336	29404	33024	
234	0	32852	32247	32673	32703	36354	29427	33030	
235	0	32806	32231	32754	32683	36295	29408	33060	
236	0	32560	32516	33044	34231	36347	29394	33031	
237	0	33080	32573	32605	32834	36255	29372	32980	
238	0	32756	32237	32550	32609	36261	29352	32923	
239	0	32784	31912	32492	32775	36275	29304	32874	
240	0	32934	32543	32742	32805	36267	29287	32848	
241	0	32603	32496	32742	32769	36272	29316	32850	
242	0	32674	32118	32635	32679	36291	29339	32916	
243	0	32984	32283	32696	32832	36315	29357	32994	
244	0	32610	32919	32617	31958	36327	29357	33047	
245	0	32899	32388	32716	31957	36326	29368	33071	
246	0	32688	32620	32497	33159	36292	29362	33072	
247	0	32984	32663	32384	32899	36317	29378	33058	
248	0	32656	32455	32624	32663	36323	29377	33052	
249	0	33080	34246	32671	31815	36343	29389	33072	
250	0	32929	32007	32635	32215	36335	29399	33057	
251	0	32688	33159	32550	33014	36313	29386	33035	
252	0	32858	32600	32673	32406	36339	29371	33010	
253	0	32832	32995	32892	33922	36278	29396	32994	
254	0	32957	32772	32708	32678	36311	29354	32992	
255	0	32580	32576	32603	32763	36295	29366	32941	
256	0	32762	32251	32561	32661	36283	29351	32886	
257	0	32481	32573	32735	32826	36295	29332	32859	
258	0	32800	34679	32615	32092	36267	29325	32857	
259	0	32654	32885	32704	32869	36253	29312	32835	
260	0	32784	32715	32564	33041	36212	29289	32802	
261	0	32739	32595	32594	33003	36247	29259	32797	
262	0	32955	32320	32595	32263	36274	29232	32803	
263	0	32971	32658	32761	33240	36189	29203	32844	
264	0	32558	32933	32775	31943	36178	29205	32867	
265	0	32636	32765	32626	33287	36186	29191	32838	
266	0	33332	32850	33011	33479	36136	29164	32879	
267	0	32808	32669	32888	32539	36198	29182	32924	
268	0	32978	32573	32263	32551	36246	29191	33011	
269	0	32914	32642	32501	32828	36263	29225	33114	
270	0	32589	32102	32443	32868	36283	29271	33158	
271	0	32665	32539	32688	32822	36283	29314	33213	
272	0	32525	32775	32717	32678	36261	29383	33179	
273	0	32646	32605	32877	32810	36283	29393	33116	
274	0	32443	32922	32647	32877	36267	29387	33087	
275	0	32752	32438	32422	32799	36265	29398	33018	
276	0	32691	32301	32413	32685	36280	29346	33035	
277	0	32890	33091	32794	32802	36275	29355	33012	
278	0	33204	32955	32498	32858	36237	29341	33021	
279	0	32637	32771	32616	32720	36255	29356	33048	
280	0	32732	32391	33189	32948	36265	29356	33053	
281	0	32772	32822	32738	32802	36242	29342	33042	
282	0	32748	32583	32445	32788	36261	29319	32994	
283	0	32704	33334	32633	32775	36240	29319	33034	
284	0	32973	32553	32554	32595	36207	29310	33058	
285	0	32712	32879	32684	32887	36210	29282	33050	
286	0	32786	32647	32804	33154	36226	29251	33055	
287	0	33226	32888	32620	32659	36203	29267	33082	
288	0	32754	32825	32573	32716	36204	29306	33057	
289	0	32512	33252	32602	33025	36183	29305	33050	
290	0	32986	32615	32730	32706	36198	29271	32986	
291	0	32687	32751	32490	32802	36165	29232	32960	
292	0	32714	31696	32441	32730	36158	29178	32958	
293	0	32632	32698	32508	34156	36192	29190	32939	
294	0	32612	32751	32578	33039	36160	29170	32938	
295	0	32952	32422	32470	32833	36178	29191	32956	
296	0	32576	32434	32514	32655	36182	29189	32978	
297	0	32946	34522	32587	32813	36167	29215	32986	
298	0	32795	32548	32495	32730	36167	29209	33007	
299	0	32458	33272	32582	32694	36146	29232	33000	
300	0	32643	32883	32718	32825	36127	29238	32999	
301	0	32898	32587	32351	32642	36158	29237	33021	
302	0	32818	32418	32631	32811	36141	29244	33029	
303	0	32965	32490	32631	32788	36131	29204	33046	
304	0	32663	32631	32631	32704	36127	29225	33024	
305	0	32740	32543	32546	32724	36127	29231	33003	
306	0	32622	32799	32647	32812	36151	29237	32991	
307	0	33010	32303	32695	32748	36131	29227	32967	
308	0	33512	32802	32914	32664	36137	29225	32971	
309	0	32388	32601	32711	32770	36091	29212	33011	
310	0	32773	32758	32506	32855	36059	29242	33013	
311	0	32483	32758	32688	32711	36082	29188	33031	
312	0	32816	32540	32683	32800	36105	29185	33035	
313	0	32859	32417	32691	32541	36061	29137	33038	
314	0	32696	32284	32543	32767	36083	29138	33037	
315	0	32636	32711	32601	32731	36050	29143	33036	
316	0	32413	32771	32713	32735	36065	29120	33015	
317	0	32850	32471	32343	32821	35988	29071	33027	
318	0	32794	33380	32670	32730	36013	29073	33031	
319	0	33080	33115	32834	32859	36007	29058	33034	
320	0	32784	32671	32773	32799	35972	29059	33059	
321	0	32848	32619	32623	32690	35966	29049	33062	
322	0	32798	32679	32747	32685	35951	29050	33035	
323	0	32760	32695	32466	32865	35926	29039	33052	
324	0	32352	32662	32839	32611	35931	29025	33017	
325	0	33179	33120	32699	32883	35909	29029	33019	
326	0	32971	32025	32428	32409	35883	28998	33019	
327	0	32500	32475	32571	32869	35887	28991	33006	
328	0	32245	32455	32499	32682	35813	28959	32994	
329	0	32690	32681	32511	32609	35847	28955	32987	
330	0	32763	32769	32481	32826	35847	28911	32957	
331	0	32685	32785	32829	32983	35831	28867	32941	
332	0	33228	32546	32448	33968	35814	28890	32966	
333	0	32731	33095	32751	33499	35763	28875	32957	
334	0	32508	32659	32775	32605	35760	28873	32948	
335	0	32872	32898	32507	32615	35787	28868	32919	
336	0	32800	32759	32608	32775	35703	28807	32900	
337	0	32722	32679	32575	32759	35608	28733	32883	
338	0	33037	32851	32475	32823	35629	28655	32865	
339	0	32698	32775	32561	32070	35696	28679	32842	
340	0	32636	32579	32630	32847	35792	28739	32829	
341	0	32650	32579	32525	32586	35808	28789	32846	
342	0	32563	32570	32742	32612	35709	28823	32858	
343	0	32493	32686	32512	32654	35749	28909	32873	
344	0	32352	32694	32835	32751	35719	28937	32878	
345	0	32256	32734	32711	32836	35702	28915	32859	
346	0	32608	32594	32647	32765	35687	28825	32845	
347	0	32562	32711	32455	32797	35680	28777	32807	
348	0	32615	32791	32613	32765	35685	28800	32807	
349	0	32807	32677	32470	32833	35749	28812	32822	
350	0	32802	32711	32728	32795	35719	28841	32838	
351	0	32861	32703	32757	32704	35645	28807	32823	
352	0	32756	32729	32802	32725	35719	28886	32775	
353	0	32811	32592	32605	32773	35830	28916	32767	
354	0	32762	32770	32735	32701	35783	28882	32794	
355	0	32711	32765	32660	32775	35715	28871	32792	
356	0	32734	32755	32592	32839	35711	28887	32825	
357	0	32728	32635	32671	32640	35700	28901	32835	
358	0	32953	32586	32638	32775	35661	28833	32843	
359	0	32762	32626	32535	32835	35573	28745	32855	
360	0	32612	32711	32658	32859	35629	28731	32818	
361	0	32544	32679	32675	32688	35634	28679	32854	
362	0	32352	32731	32543	32653	35573	28653	32902	
363	0	32640	32551	32705	32751	35547	28679	32938	
364	0	32914	32838	32569	32808	35535	28661	33003	
365	0	32708	32742	32675	32755	35434	28727	32994	
366	0	32569	32775	32731	32790	35569	28702	32892	
367	0	32664	32741	32568	32832	35463	28674	32816	
368	0	33000	32711	32463	32745	35487	28595	32801	
369	0	32422	32637	32774	32802	35558	28610	32804	
370	0	32473	32613	32844	32775	35495	28644	32800	
371	0	32907	32540	32364	32775	35546	28639	32792	
372	0	32647	32689	32699	32761	35497	28666	32775	
373	0	33068	32687	32607	32674	35462	28659	32775	
374	0	33128	32791	32694	32811	35450	28620	32775	
375	0	32197	32647	32478	32734	35425	28582	32763	
376	0	32545	32567	32437	32668	35483	28573	32758	
377	0	32914	32647	32428	32732	35450	28598	32758	
378	0	33173	32738	32720	32725	35508	28629	32757	
379	0	32950	32661	32383	32743	35484	28645	32775	
380	0	32516	32596	32882	32689	35505	28667	32821	
381	0	32680	32739	32694	32876	35519	28713	32835	
382	0	32354	32839	32769	32852	35511	28749	32832	
383	0	32540	32770	32256	32626	35514	28732	32844	
384	0	33312	32685	32447	32537	35477	28741	32827	
385	0	32752	32751	32666	32685	35476	28699	32844	
386	0	33024	32707	32615	32791	35458	28671	32872	
387	0	32826	32759	32686	32773	35447	28646	32861	
388	0	33074	32597	32516	32751	35444	28595	32822	
389	0	32658	32719	32525	32824	35470	28587	32807	
390	0	32812	32775	32411	32775	35463	28591	32810	
391	0	32925	32773	32771	32583	35427	28555	32825	
392	0	32587	32719	32627	32826	35423	28582	32819	
393	0	32843	32809	32734	32727	35427	28600	32816	
394	0	32476	32484	32722	32728	35410	28602	32822	
395	0	32865	32618	32467	32775	35411	28570	32826	
396	0	32612	32570	32725	32676	35383	28527	32830	
397	0	32654	32678	32647	32769	35335	28528	32823	
398	0	32780	32775	32557	32739	35347	28499	32827	
399	0	32775	32769	32619	32711	35303	28504	32799	
400	0	32690	32736	32615	32827	35307	28506	32816	
401	0	32904	32702	32530	32790	35291	28521	32813	
402	0	32884	32640	32701	32811	35359	28565	32819	
403	0	32786	32675	32455	32827	35351	28551	32831	
404	0	32866	32641	32525	32760	35307	28551	32811	
405	0	32726	32807	32881	32827	35303	28543	32827	
406	0	32477	32792	32519	32784	35288	28491	32838	
407	0	32922	32567	32493	32742	35302	28492	32835	
408	0	32758	32647	33021	32789	35311	28480	32858	
409	0	32898	32625	32680	32711	35295	28502	32850	
410	0	32808	32719	32516	32755	35296	28517	32834	
411	0	32249	32587	32332	32765	35311	28503	32846	
412	0	32486	32775	32615	32702	35303	28511	32840	
413	0	32730	32771	32487	32771	35293	28522	32851	
414	0	32618	32666	32753	32667	35275	28506	32837	
415	0	32957	32757	32824	32738	35311	28531	32831	
416	0	32838	32587	32610	32771	35335	28519	32820	
417	0	32704	32721	32660	32635	35302	28515	32808	
418	0	32846	32827	32721	32735	35300	28504	32839	
419	0	32698	32711	32826	32754	35267	28503	32857	
420	0	32698	32601	32473	32745	35282	28539	32850	
421	0	32704	32528	32466	32774	35296	28519	32871	
422	0	33000	32698	32438	32791	35271	28546	32845	
423	0	32624	32626	32615	32619	35271	28545	32827	
424	0	33213	32792	32738	32720	35254	28518	32837	
425	0	32432	32692	32551	32826	35252	28502	32818	
426	0	33190	32567	32752	32731	35280	28487	32843	
427	0	32894	32747	32617	32658	35287	28511	32822	
428	0	32972	32752	32461	32755	35269	28530	32836	
429	0	32800	32711	32560	32755	35283	28523	32851	
430	0	32848	32615	32440	32775	35243	28525	32824	
431	0	32500	32850	32809	32720	35262	28509	32832	
432	0	32632	32486	32500	32758	35254	28495	32846	
433	0	32872	32583	32662	32706	35271	28492	32866	
434	0	32978	32671	32665	32854	35267	28495	32857	
435	0	33122	32692	32679	32642	35243	28510	32864	
436	0	32710	32727	32615	32696	35269	28518	32883	
437	0	32673	32725	32658	32747	35268	28521	32888	
438	0	32795	32775	32688	32720	35269	28506	32884	
439	0	32611	32692	32543	32819	35238	28507	32876	
440	0	32793	32573	32742	32747	35254	28499	32876	
441	0	32743	32702	32665	32733	35264	28507	32871	
442	0	32732	32746	32625	32734	35241	28510	32854	
443	0	32632	32715	32415	32791	35298	28524	32870	
444	0	32960	32654	32387	32770	35295	28534	32871	
445	0	32654	32740	32914	32762	35254	28515	32876	
446	0	32790	32617	32638	32626	35294	28520	32885	
447	0	32762	32795	32695	32678	35254	28509	32887	
448	0	32890	32793	32555	32686	35310	28530	32873	
449	0	32408	32639	32663	32839	35275	28519	32887	
450	0	32634	32608	32557	32757	35307	28543	32867	
451	0	32643	32602	32529	32792	35298	28543	32863	
452	0	32775	32733	32642	32631	35271	28546	32867	
453	0	32894	32761	32499	32790	35303	28566	32844	
454	0	32768	32653	32775	32722	35318	28530	32850	
455	0	32810	32610	32796	32687	35315	28537	32816	
456	0	32970	32707	32739	32652	35322	28551	32827	
457	0	32792	32756	32775	32753	35290	28551	32847	
458	0	32680	32688	32603	32767	35331	28563	32834	
459	0	32682	32654	32620	32647	35310	28586	32822	
460	0	33217	32675	32477	32742	35315	28565	32826	
461	0	32684	32793	32614	32525	35323	28555	32839	
462	0	32765	32804	32676	32826	35307	28550	32831	
463	0	32432	32647	32805	33027	35281	28567	32834	
464	0	32906	32715	32775	32795	35305	28551	32852	
465	0	32972	32615	32407	32652	35318	28542	32847	
466	0	32474	32624	32546	32820	35277	28537	32854	
467	0	32864	32775	32609	32810	35312	28551	32871	
468	0	32658	32795	32583	32625	35278	28566	32839	
469	0	32638	32734	32412	32737	35295	28558	32793	
470	0	32676	32519	32593	32858	35282	28545	32822	
471	0	32912	32589	32617	32663	35238	28523	32836	
472	0	32842	32735	32647	32675	35279	28517	32824	
473	0	32624	32723	32355	32796	35250	28510	32821	
474	0	32566	32771	32685	32791	35271	28528	32809	
475	0	32422	32570	32626	32743	35276	28531	32828	
476	0	32724	32695	33103	32771	35264	28527	32835	
477	0	32816	32727	32859	32671	35316	28518	32843	
478	0	32587	32711	32614	32662	35286	28506	32853	
479	0	32852	32555	32597	32656	35290	28541	32845	
480	0	32459	32576	32773	32688	35288	28542	32854	
481	0	32992	32647	32646	32600	35277	28530	32844	
482	0	32775	32715	32560	32734	35256	28515	32845	
483	0	32514	32536	32848	32703	35255	28500	32838	
484	0	32494	32726	32450	32847	35265	28514	32839	
485	0	32798	32798	32679	32811	35255	28522	32822	
486	0	32594	32547	32619	32743	35264	28517	32812	
487	0	32872	32696	32742	32807	35249	28522	32830	
488	0	32762	32679	32504	32748	35275	28528	32808	
489	0	32886	32699	32839	32691	35271	28523	32811	
490	0	32492	32702	32602	32724	35247	28503	32816	
491	0	32689	32742	32691	32735	35276	28511	32814	
492	0	32866	32686	32556	32733	35287	28512	32816	
493	0	32524	32608	32474	32647	35264	28493	32824	
494	0	32920	32670	32445	32731	35273	28504	32830	
495	0	32992	32677	32614	32647	35266	28505	32820	
496	0	32928	32568	32577	32843	35283	28531	32838	
497	0	32592	32775	32454	32797	35258	28521	32833	
498	0	33110	32690	32475	32730	35275	28547	32822	
499	0	32655	32637	32464	32838	35259	28515	32821	
500	0	32824	32775	32553	32644	35280	28519	32847	
501	0	33126	32750	32965	32817	35271	28525	32855	
502	0	32702	32739	32658	32743	35267	28528	32837	
503	0	32460	32743	32442	32703	35271	28556	32820	
504	0	32606	32583	32516	32773	35262	28528	32848	
505	0	32699	32731	32317	32711	35278	28536	32843	
506	0	32773	32684	32722	32802	35262	28543	32867	
507	0	32834	32527	32359	32764	35277	28531	32839	
508	0	32710	32685	32619	32711	35271	28532	32844	
509	0	32931	32716	32895	32831	35229	28502	32824	
510	0	33242	32655	32527	32798	35275	28502	32806	
511	0	32512	32743	32643	32762	35271	28524	32796	
512	0	32713	32658	32619	32746	35271	28516	32819	
513	0	32599	32704	32711	32740	35239	28520	32838	
514	0	32816	32673	32576	32795	35295	28494	32843	
515	0	32681	32823	32448	32742	35271	28485	32833	
516	0	32738	32756	32641	32775	35259	28475	32839	
517	0	32688	32687	32552	32675	35252	28487	32818	
518	0	32538	32721	32483	32675	35245	28486	32813	
519	0	32602	32775	32383	32879	35220	28465	32841	
520	0	32568	32664	32729	32672	35201	28481	32826	
521	0	32929	32669	32512	32749	35215	28499	32809	
522	0	32556	32763	32491	32711	35207	28498	32839	
523	0	32791	32683	32707	32679	35219	28521	32832	
524	0	32650	32658	32642	32662	35190	28519	32827	
525	0	32656	32735	32543	32775	35230	28498	32856	
526	0	32896	32676	32499	32762	35244	28509	32855	
527	0	32848	32602	32578	32685	35238	28496	32855	
528	0	33066	32775	32993	32694	35235	28514	32847	
529	0	32842	32595	32683	32786	35240	28500	32839	
530	0	32594	32663	32671	32838	35205	28495	32832	
531	0	32755	32634	32802	32834	35238	28521	32813	
532	0	32760	32594	32663	32775	35245	28506	32811	
533	0	32748	32619	32745	32795	35252	28518	32814	
534	0	32685	32667	32665	32793	35240	28504	32818	
535	0	33318	32680	32607	32769	35238	28491	32804	
536	0	33176	32750	32610	32647	35226	28487	32806	
537	0	32826	32690	32759	32795	35250	28513	32833	
538	0	32485	32714	32544	32683	35219	28516	32835	
539	0	32892	32673	32643	32735	35219	28512	32852	
540	0	32794	32662	32577	32727	35230	28506	32845	
541	0	32881	32690	32612	32726	35207	28494	32852	
542	0	32690	32566	32563	32631	35227	28487	32850	
543	0	32865	32730	33095	32510	35167	28483	32839	
544	0	32455	32775	32518	32751	35176	28474	32834	
545	0	32300	32688	32663	32942	35191	28462	32839	
546	0	32676	32635	32802	32856	35172	28472	32856	
547	0	32876	32639	32617	32621	35143	28487	32835	
548	0	32710	32632	32719	32743	35183	28477	32846	
549	0	32826	32788	32583	32807	35174	28461	32850	
550	0	32774	32702	32403	32807	35199	28456	32845	
551	0	32795	32679	32714	32723	35199	28477	32815	
552	0	32848	32595	32610	32743	35165	28454	32830	
553	0	32835	32725	32839	32755	35196	28461	32803	
554	0	32752	32730	32396	32725	35142	28445	32804	
555	0	32603	32747	32455	32671	35136	28439	32803	
556	0	32888	32688	32697	32733	35137	28452	32804	
557	0	32976	32578	32512	32828	35184	28455	32820	
558	0	32448	32554	32733	32745	35177	28442	32829	
559	0	32828	32727	32590	32818	35147	28427	32821	
560	0	32990	32746	32752	32767	35207	28431	32832	
561	0	32459	32635	32691	32775	35143	28443	32838	
562	0	32795	32504	32643	32677	35143	28459	32834	
563	0	32558	32570	32775	32695	35143	28435	32821	
564	0	33160	32770	32658	32720	35165	28453	32812	
565	0	32879	32745	32408	32827	35150	28442	32820	
566	0	32708	32554	32762	32807	35120	28445	32815	
567	0	32932	32747	32796	32659	35150	28447	32839	
568	0	32457	32734	32598	32751	35165	28452	32834	
569	0	32689	32688	32504	32743	35122	28448	32820	
570	0	32853	32662	32746	32790	35142	28454	32816	
571	0	33083	32751	32720	32666	35126	28458	32805	
572	0	32832	32822	32553	32867	35161	28437	32818	
573	0	32866	32794	32559	32638	35139	28430	32835	
574	0	32794	32607	32519	32775	35148	28435	32805	
575	0	32425	32595	32668	32730	35150	28447	32801	
576	0	32749	32534	32379	32643	35138	28456	32806	
577	0	32553	32715	32441	32756	35162	28452	32809	
578	0	32898	32690	32802	32680	35159	28437	32809	
579	0	32772	32647	32730	32695	35106	28463	32811	
580	0	32800	32691	32450	32758	35111	28446	32823	
581	0	32868	32612	32710	32825	35123	28428	32830	
582	0	32548	32746	32660	32674	35136	28439	32835	
583	0	32830	32607	32406	32603	35096	28461	32799	
584	0	32753	32711	32609	32704	35108	28425	32813	
585	0	32560	32733	32645	32773	35106	28429	32786	
586	0	32466	32556	32655	32834	35111	28442	32798	
587	0	32582	32673	32677	32711	35172	28422	32775	
588	0	32671	32617	32801	32775	35088	28421	32788	
589	0	32674	32804	32573	32738	35111	28429	32806	
590	0	32606	32523	32674	32775	35130	28415	32798	
591	0	32763	32674	32642	32742	35094	28419	32795	
592	0	32651	32734	32845	32848	35127	28403	32811	
593	0	32710	32647	32958	32660	35103	28418	32798	
594	0	32850	32643	32410	32775	35096	28401	32793	
595	0	32726	32810	32589	32793	35069	28395	32800	
596	0	32752	32550	32618	32775	35049	28407	32788	
597	0	32638	32753	32929	32769	35110	28401	32775	
598	0	32738	32733	32528	32763	35069	28415	32787	
599	0	32651	32667	32707	32683	35077	28414	32789	
600	0	32841	32583	32423	32753	35088	28412	32762	
601	0	32784	32585	32620	32802	35087	28394	32775	
602	0	32555	32721	32663	32702	35119	28407	32767	
603	0	32960	32741	32808	32647	35091	28404	32768	
604	0	32516	32620	32813	32866	35079	28392	32783	
605	0	32792	32722	32742	32678	35071	28393	32785	
606	0	32804	32666	32656	32700	35079	28391	32784	
607	0	32850	32762	32619	32703	35079	28395	32789	
608	0	32697	32727	32611	32761	35053	28411	32775	
609	0	32941	32690	33211	32705	35074	28393	32775	
610	0	32996	32677	32359	32711	35091	28393	32791	
611	0	32768	32521	32670	32727	35059	28416	32754	
612	0	32804	32770	32561	32794	35077	28407	32791	
613	0	32646	32679	32672	32751	35088	28399	32771	
614	0	32848	32615	32870	32731	35090	28407	32770	
615	0	32902	32711	32646	32769	35049	28422	32751	
616	0	32548	32555	32711	32805	35068	28415	32765	
617	0	32662	32700	32569	32626	35030	28402	32762	
618	0	32573	32747	32590	32647	35070	28402	32756	
619	0	32480	32738	32717	32915	35089	28406	32760	
620	0	32868	32597	32594	32695	35085	28411	32762	
621	0	32768	32656	32639	32738	35090	28395	32754	
622	0	32909	32663	32867	32795	35077	28393	32771	
623	0	32376	32767	32738	33014	35061	28406	32771	
624	0	32640	32696	32811	32945	35073	28390	32775	
625	0	32728	32596	32624	32720	35045	28387	32784	
626	0	32538	32633	32663	32710	35041	28401	32773	
627	0	32775	32698	32728	32695	35041	28375	32791	
628	0	32674	32623	32647	32827	35053	28367	32793	
629	0	32742	32647	32716	32775	35047	28391	32769	
630	0	32566	32807	32613	32820	35019	28393	32759	
631	0	32684	32647	32582	32753	35023	28413	32748	
632	0	32558	32804	32775	32883	35037	28446	32762	
633	0	32730	32679	32475	32666	35047	28423	32799	
634	0	33039	32775	32672	32789	35027	28388	32804	
635	0	32548	32788	32631	32775	35029	28389	32752	
636	0	33133	32695	32566	32751	35058	28374	32773	
637	0	32680	32749	32711	32620	35031	28404	32775	
638	0	32869	32611	32676	32759	35052	28397	32775	
639	0	32860	32647	32603	32745	35065	28401	32775	
640	0	32623	32722	32564	32757	35063	28385	32775	
641	0	33075	32594	32686	32748	35047	28378	32771	
642	0	32775	32706	32596	32721	35103	28399	32754	
643	0	32588	32754	32833	32677	35024	28411	32747	
644	0	32756	32820	32604	32659	35063	28400	32751	
645	0	33126	32743	32775	32692	35035	28395	32758	
646	0	32664	32711	32635	32794	35036	28371	32775	
647	0	32708	32806	32626	32847	35015	28375	32775	
648	0	32807	32605	32284	32761	35015	28397	32775	
649	0	32775	32722	33119	32834	35031	28385	32762	
650	0	32987	32763	32747	32679	35029	28392	32745	
651	0	32412	32638	32654	32819	35052	28391	32755	
652	0	32720	32671	32647	32762	35053	28375	32759	
653	0	32832	32608	32542	32717	35043	28395	32758	
654	0	32955	32786	32803	32711	35035	28393	32757	
655	0	32696	32775	32646	32660	35036	28391	32775	
656	0	32812	32543	32592	32806	35053	28394	32763	
657	0	32704	32726	32624	32623	35032	28410	32747	
658	0	32738	32742	32564	32807	35035	28410	32760	
659	0	33328	32765	32589	32692	35039	28376	32764	
660	0	32988	32535	32672	32823	35015	28372	32796	
661	0	32640	32592	32565	32722	35024	28380	32790	
662	0	32708	32732	32418	32775	35036	28381	32772	
663	0	33052	32591	32519	32742	35033	28357	32775	
664	0	32766	32794	32562	32861	35019	28367	32795	
665	0	32841	32706	32704	32775	35031	28367	32782	
666	0	32536	32726	32740	32679	35045	28361	32761	
667	0	33123	32726	32527	32801	35063	28379	32756	
668	0	32658	32690	32543	32816	35019	28362	32775	
669	0	32860	32684	32839	32647	35033	28370	32763	
670	0	32732	32683	32691	32771	35015	28378	32758	
671	0	32820	32575	32647	32818	35055	28363	32775	
672	0	32889	32715	32563	32743	35027	28347	32771	
673	0	32492	32695	32667	32807	35013	28355	32787	
674	0	32844	32703	32774	32669	35009	28359	32791	
675	0	33215	32739	32787	32706	35003	28391	32770	
676	0	32841	32708	32703	32872	35042	28372	32784	
677	0	33170	32790	32391	32788	35049	28370	32775	
678	0	32615	32751	32626	32639	35008	28354	32775	
679	0	32878	32734	32667	32804	35035	28359	32771	
680	0	32786	32775	32675	32775	35037	28379	32775	
681	0	32788	32719	32574	32735	35055	28370	32775	
682	0	32832	32734	32674	32654	35047	28386	32771	
683	0	32962	32578	32696	32704	35066	28397	32764	
684	0	32276	32718	32635	32822	35081	28381	32763	
685	0	32874	32663	32547	32775	35048	28390	32754	
686	0	32574	32554	32477	32762	35052	28386	32759	
687	0	33081	32634	32662	32802	35035	28383	32762	
688	0	32563	32639	32696	32775	35062	28410	32740	
689	0	32914	32567	32681	32642	35027	28401	32745	
690	0	32731	32624	32903	32774	35032	28405	32745	
691	0	32880	32599	32695	32819	35079	28400	32747	
692	0	32506	32592	32826	32672	35012	28419	32714	
693	0	33212	32612	32414	32799	35049	28397	32746	
694	0	32763	32705	32643	32659	35101	28390	32751	
695	0	33076	32688	32420	32738	35060	28406	32741	
696	0	32793	32566	32429	32564	35113	28418	32752	
697	0	32647	32775	32562	32832	35079	28412	32766	
698	0	32720	32772	32762	32775	35073	28431	32750	
699	0	32538	32698	32423	32775	35063	28422	32754	
700	0	32720	32703	32727	32727	35055	28425	32759	
701	0	32704	32749	32717	32700	35053	28406	32775	
702	0	32432	32725	32976	33031	35074	28423	32763	
703	0	32390	32662	32775	32797	35062	28407	32760	
704	0	33097	32735	32471	32543	35063	28400	32775	
705	0	32850	32596	32742	32754	35073	28404	32775	
706	0	32699	32627	32342	32685	35068	28393	32794	
707	0	32430	32604	32583	32644	35071	28415	32775	
708	0	32952	32797	32597	32741	35070	28425	32758	
709	0	32512	32571	32725	32711	35055	28411	32749	
710	0	32736	32758	32763	32719	35052	28410	32769	
711	0	32804	32720	32604	32681	35039	28408	32775	
712	0	32508	32703	32455	32823	35048	28397	32775	
713	0	33205	32531	32555	32827	35090	28379	32775	
714	0	32762	32534	32527	32775	35071	28383	32775	
715	0	32424	32696	32567	32803	35093	28372	32785	
716	0	32612	32613	32571	32747	35073	28370	32769	
717	0	32709	32703	32728	32768	35043	28374	32775	
718	0	33052	32706	32752	32738	35057	28361	32775	
719	0	32864	32787	32364	32679	35047	28371	32749	
720	0	32716	32526	32680	32732	35063	28388	32748	
721	0	32841	32654	32583	32757	35063	28402	32727	
722	0	32820	32636	32536	32791	35052	28390	32752	
723	0	32525	32759	32704	32742	35075	28411	32738	
724	0	32498	32726	32710	32711	35108	28422	32748	
725	0	32640	32775	32683	32696	35066	28396	32741	
726	0	32677	32711	32583	32809	35113	28385	32767	
727	0	32842	32677	32883	32803	35066	28411	32718	
728	0	32528	32773	32791	32735	35067	28394	32751	
729	0	32752	32707	33037	32711	35060	28391	32743	
730	0	32525	32580	32443	32775	35095	28402	32745	
731	0	32976	32582	32630	32679	35084	28413	32751	
732	0	32655	32678	32699	32702	35057	28403	32741	
733	0	33037	32512	32461	32619	35109	28408	32752	
734	0	33120	32683	32431	32629	35113	28399	32754	
735	0	32956	32647	32451	32799	35105	28413	32742	
736	0	32688	32699	32711	32647	35065	28399	32749	
737	0	32725	32799	32479	32775	35094	28415	32733	
738	0	32736	32743	32769	32800	35071	28421	32743	
739	0	32696	32758	32540	32583	35068	28407	32759	
740	0	33266	32660	32621	32790	35078	28427	32770	
741	0	33104	32591	32408	32727	35070	28425	32775	
742	0	32530	32519	32703	32741	35083	28397	32763	
743	0	32524	32715	32518	32787	35073	28422	32736	
744	0	32752	32690	32634	32759	35108	28419	32754	
745	0	32664	32775	32487	32630	35111	28420	32743	
746	0	32572	32601	32556	32670	35071	28422	32756	
747	0	32921	32709	32720	32763	35062	28401	32738	
748	0	33017	32766	32610	32671	35091	28407	32732	
749	0	32684	32690	32733	32754	35037	28402	32743	
750	0	32615	32775	32545	32821	35087	28391	32748	
751	0	33206	32723	32496	32788	35043	28386	32739	
752	0	32647	32750	32689	32730	35070	28407	32739	
753	0	32688	32537	32635	32674	35042	28393	32756	
754	0	32666	32743	32593	32720	35061	28400	32747	
755	0	32862	32622	32495	32701	35074	28402	32769	
756	0	32838	32758	32557	32775	35072	28385	32752	
757	0	32450	32630	32477	32730	35061	28399	32757	
758	0	32548	32717	32738	32805	35041	28393	32755	
759	0	32674	32710	32551	32749	35065	28406	32751	
760	0	33451	32624	32679	32795	35063	28397	32751	
761	0	32808	32583	32769	32671	35036	28395	32743	
762	0	32768	32803	32609	32760	35075	28374	32750	
763	0	32710	32676	32807	32663	35074	28403	32735	
764	0	32742	32751	33002	32743	35066	28391	32736	
765	0	32685	32591	32468	32743	35059	28379	32735	
766	0	32710	32621	32914	32775	35072	28386	32736	
767	0	32896	32621	32873	32802	35072	28408	32724	
768	0	33022	32563	32722	32865	35056	28406	32739	
769	0	32810	32543	32483	32837	35081	28390	32734	
770	0	32662	32735	32592	32829	35068	28379	32736	
771	0	32903	32929	32568	32698	35071	28370	32735	
772	0	32606	32615	32485	32769	35055	28376	32722	
773	0	32820	32775	32721	32738	35068	28375	32746	
774	0	32652	32761	32595	32753	35047	28388	32722	
775	0	32557	32759	32526	32796	35087	28390	32731	
776	0	32749	32638	32517	32728	35085	28406	32717	
777	0	32652	32671	32498	32763	35062	28377	32733	
778	0	33004	32679	32722	32725	35032	28379	32736	
779	0	32761	32775	32616	32703	35076	28383	32733	
780	0	32386	32743	32498	32704	35040	28395	32721	
781	0	32799	32626	32615	32647	35069	28379	32728	
782	0	32775	32715	32384	32681	35045	28381	32721	
783	0	32666	32744	32706	32799	35047	28370	32734	
784	0	32670	32719	32976	33063	35050	28378	32737	
785	0	32617	32805	32463	32745	35031	28391	32730	
786	0	32747	32729	32541	32683	35034	28387	32735	
787	0	32682	32662	32655	32695	35005	28382	32735	
788	0	32789	32632	32642	32711	35024	28367	32739	
789	0	32836	32711	32829	32617	35038	28383	32729	
790	0	32720	32839	32700	32775	35040	28359	32718	
791	0	33276	32647	32647	32809	35003	28368	32711	
792	0	32540	32687	32697	32678	35013	28380	32719	
793	0	32872	32709	32707	32823	35012	28359	32736	
794	0	32912	32758	32656	32756	35010	28343	32746	
795	0	32738	32726	32391	32581	35024	28361	32724	
796	0	32516	32658	32589	32753	35044	28366	32744	
797	0	32829	32666	32576	32686	35024	28370	32738	
798	0	32758	32807	32721	32759	35040	28364	32745	
799	0	32677	32684	32647	32798	35007	28371	32750	
800	0	32726	32677	32853	32762	35014	28377	32749	
801	0	32812	32761	32711	32839	35000	28370	32754	
802	0	32754	32549	32743	32585	35044	28374	32739	
803	0	32662	32763	32489	32775	35017	28368	32725	
804	0	32902	32786	32908	32816	35026	28366	32719	
805	0	32814	32773	32675	32683	35023	28375	32715	
806	0	32716	32751	32874	32811	35019	28371	32724	
807	0	32701	32579	32594	32755	35023	28359	32719	
808	0	32850	32574	32824	32786	35037	28374	32711	
809	0	32632	32715	32775	32695	35032	28389	32741	
810	0	32808	32684	32624	32734	35035	28379	32726	
811	0	33117	32746	32734	32846	35015	28368	32740	
812	0	32736	32809	32722	32825	34998	28368	32737	
813	0	32668	32796	32489	32775	35013	28357	32739	
814	0	32869	32599	32551	32747	35027	28364	32735	
815	0	33147	32727	32759	32852	35011	28358	32728	
816	0	32768	32768	32513	32775	35025	28383	32743	
817	0	32698	32735	32602	32727	35023	28391	32738	
818	0	32634	32698	32588	32646	35001	28384	32731	
819	0	32854	32596	32552	32797	35000	28379	32730	
820	0	32518	32711	32681	32745	35002	28378	32742	
821	0	34081	32744	32578	32795	35027	28368	32751	
822	0	32810	32614	32584	32851	35049	28361	32762	
823	0	32621	32714	32550	32802	35015	28350	32746	
824	0	32740	32611	32507	32824	35029	28356	32751	
825	0	32938	32711	32445	32775	35044	28356	32746	
826	0	32640	32758	32525	32704	35012	28367	32749	
827	0	33024	32738	32402	32742	34989	28359	32768	
828	0	32912	32691	32615	32851	35015	28380	32739	
829	0	32568	32723	32711	32731	35015	28367	32741	
830	0	33153	32729	32410	32798	35013	28368	32725	
831	0	32602	32683	32672	32666	35015	28365	32745	
832	0	32742	32578	32727	32696	35019	28370	32758	
833	0	33018	32711	32875	32854	35026	28385	32751	
834	0	32621	32583	32451	32612	35052	28383	32743	
835	0	32708	32709	32735	32658	35055	28358	32753	
836	0	32731	32617	32463	32726	35005	28343	32767	
837	0	32698	32799	32575	32804	35040	28390	32734	
838	0	32788	32560	32621	32811	35021	28359	32743	
839	0	32436	32685	32640	32819	35001	28379	32743	
840	0	32656	32720	32479	32606	35036	28365	32749	
841	0	32614	32588	32652	32710	35024	28367	32744	
842	0	32652	32742	32601	32742	35023	28364	32757	
843	0	32775	32705	32571	32727	35026	28352	32751	
844	0	32786	32603	32687	32647	35045	28383	32771	
845	0	32836	32739	32503	32860	35034	28379	32752	
846	0	32652	32643	32637	32741	35022	28395	32759	
847	0	32547	32658	32486	32705	35070	28391	32771	
848	0	32754	32666	32477	32818	35055	28378	32767	
849	0	32668	32707	32399	32655	35055	28391	32755	
850	0	32822	32670	32621	32627	35069	28390	32775	
851	0	33005	32775	32658	32775	35035	28386	32770	
852	0	32852	32727	32389	32719	35035	28401	32775	
853	0	33107	32829	32525	32732	35061	28398	32759	
854	0	32684	32749	32532	32676	35045	28391	32752	
855	0	32864	32623	32605	32708	35049	28376	32755	
856	0	33271	32683	32676	32775	35049	28402	32743	
857	0	32768	32739	32579	32734	35033	28403	32744	
858	0	32578	32804	32551	32769	35033	28388	32745	
859	0	33185	32760	32769	32679	35062	28384	32754	
860	0	32626	32668	32773	32677	35033	28380	32759	
861	0	32775	32668	32669	32791	35026	28391	32769	
862	0	32790	32659	32539	32818	35047	28379	32762	
863	0	32838	32737	32679	32697	35014	28379	32775	
864	0	33051	32687	32597	32800	35047	28369	32756	
865	0	32583	32691	32647	32854	35049	28378	32762	
866	0	32751	32768	32599	32793	35027	28370	32769	
867	0	32809	32686	32353	32631	35017	28387	32743	
868	0	32946	32589	32475	32629	35030	28387	32761	
869	0	32438	32696	32943	32775	35057	28396	32742	
870	0	32992	32739	32851	33015	35035	28384	32735	
871	0	32828	32625	32866	32808	35027	28372	32743	
872	0	32676	32679	32750	32582	35021	28382	32759	
873	0	32580	32507	32592	32711	35033	28402	32756	
874	0	32898	32801	32890	32765	35045	28359	32771	
875	0	32594	32695	32609	32635	35037	28389	32741	
876	0	32569	32743	32663	32812	35052	28405	32711	
877	0	32787	32687	32498	32757	35053	28395	32718	
878	0	32684	32699	32752	32758	35041	28383	32739	
879	0	32560	32633	32751	32663	35015	28386	32746	
880	0	32745	32562	32684	32823	35013	28375	32730	
881	0	32996	32564	32894	32609	35013	28361	32731	
882	0	32612	32773	32749	32771	35039	28381	32727	
883	0	32652	32689	32711	32647	35026	28375	32744	
884	0	32525	32613	32699	32797	35059	28382	32731	
885	0	33287	32739	32863	32703	35033	28370	32736	
886	0	32722	32544	32760	32902	35007	28391	32723	
887	0	32389	32764	32742	32767	35064	28374	32745	
888	0	32350	32721	32642	32740	35027	28380	32745	
889	0	32728	32711	32829	32686	35041	28393	32731	
890	0	32840	32594	32489	32854	35059	28388	32740	
891	0	33055	32726	32699	32678	35030	28403	32743	
892	0	32564	32639	32568	32715	35043	28405	32734	
893	0	33187	32709	32658	32786	35044	28406	32738	
894	0	32438	32512	32890	32617	35047	28418	32729	
895	0	33138	32596	32734	32758	35063	28383	32740	
896	0	32604	32547	32574	32683	35033	28383	32743	
897	0	32514	32729	32702	32804	35026	28377	32743	
898	0	32596	32711	32613	32825	35041	28395	32748	
899	0	32782	32567	32755	32693	35058	28381	32740	
900	0	32662	32770	32642	32769	35065	28362	32764	
901	0	33065	32571	32721	32746	35055	28391	32756	
902	0	32696	32552	32450	32652	35030	28393	32749	
903	0	32628	32805	32698	32807	35055	28395	32754	
904	0	32874	32742	32739	32807	35043	28390	32723	
905	0	32796	32650	32830	32775	35062	28403	32718	
906	0	32914	32729	32557	32848	35062	28390	32739	
907	0	32548	32571	32573	32631	35052	28391	32758	
908	0	32647	32686	32592	32727	35034	28384	32765	
909	0	32775	32544	32675	32760	35039	28375	32762	
910	0	33065	32673	32666	32796	35029	28387	32756	
911	0	33060	32603	32839	32816	34999	28381	32756	
912	0	33010	32652	32391	32854	35052	28383	32758	
913	0	32613	32775	32429	32669	35023	28375	32752	
914	0	33044	32805	32912	32836	35007	28391	32751	
915	0	32772	32806	32592	32708	35061	28385	32762	
916	0	32790	32717	32477	32750	35053	28375	32739	
917	0	32971	32675	32799	32775	35053	28391	32750	
918	0	32976	32752	32466	32719	35045	28359	32739	
919	0	32710	32738	32685	32743	35019	28373	32742	
920	0	32871	32769	32702	32720	35032	28385	32735	
921	0	32475	32760	32661	32775	35000	28378	32774	
922	0	32766	32775	32587	32722	35037	28374	32767	
923	0	32792	32653	32549	32775	35021	28370	32758	
924	0	32848	32602	32619	32662	35017	28368	32752	
925	0	32480	32582	32483	32709	35026	28371	32739	
926	0	32918	32568	32721	32796	35033	28386	32746	
927	0	32676	32684	32500	32775	35052	28359	32769	
928	0	32711	32622	32473	32771	35001	28367	32763	
929	0	32728	32653	32571	32775	34999	28393	32770	
930	0	32790	32775	32557	32815	35029	28367	32761	
931	0	32840	32628	32635	32847	34989	28374	32771	
932	0	32842	32711	32489	32717	35034	28381	32771	
933	0	32962	32545	32674	32684	35049	28387	32754	
934	0	33414	32711	32654	32677	35047	28389	32767	
935	0	32512	32718	32626	32723	35059	28385	32775	
936	0	32578	32739	32552	32797	35032	28381	32775	
937	0	32710	32560	32747	32629	35025	28399	32775	
938	0	33341	32690	32503	32717	35071	28375	32767	
939	0	32838	32691	32566	32817	35003	28360	32767	
940	0	32888	32625	32775	32893	35035	28365	32752	
941	0	32750	32703	32662	32747	35055	28388	32763	
942	0	32802	32646	32506	32699	35045	28375	32760	
943	0	33062	32658	32914	32850	35046	28366	32775	
944	0	32632	32579	32624	32711	35063	28395	32766	
945	0	32568	32680	32714	32767	35068	28407	32767	
946	0	32816	32689	32823	32807	35029	28410	32751	
947	0	32604	32771	32498	32659	35049	28388	32787	
948	0	32890	32557	32635	32658	35055	28391	32763	
949	0	32720	32722	32775	32688	35028	28371	32752	
950	0	32744	32529	32519	32631	35042	28394	32759	
951	0	32670	32808	32323	32568	35063	28395	32767	
952	0	32992	32731	32684	32591	35073	28400	32761	
953	0	32520	32568	32775	32608	35028	28388	32767	
954	0	32894	32751	32534	32742	35029	28384	32770	
955	0	32980	32673	32593	32647	35037	28394	32760	
956	0	32684	32742	32605	32775	35048	28388	32763	
957	0	32604	32839	32677	32945	35024	28385	32757	
958	0	32809	32555	32695	32745	35049	28390	32764	
959	0	33074	32758	32526	32723	35039	28369	32759	
960	0	32740	32748	32407	32683	35030	28389	32771	
961	0	32768	32734	32876	32628	35055	28395	32775	
962	0	32756	32755	32421	32797	35030	28389	32762	
963	0	32848	32675	32592	32738	35061	28393	32719	
964	0	33048	32617	32692	32741	35071	28403	32739	
965	0	32984	32773	32661	32727	34992	28386	32744	
966	0	32429	32806	32523	32642	35035	28386	32773	
967	0	32794	32742	32486	32704	35030	28378	32757	
968	0	32713	32548	32941	32758	35052	28383	32749	
969	0	32696	32593	32589	32736	35031	28382	32751	
970	0	33238	32658	32692	32595	35037	28364	32759	
971	0	32374	32796	32723	32706	35071	28381	32753	
972	0	32764	32711	32807	32742	35041	28365	32754	
973	0	32916	32753	32580	32723	35071	28379	32763	
974	0	32617	32762	32664	32711	35029	28389	32760	
975	0	32869	32598	32484	32807	35020	28374	32756	
976	0	33064	32745	32718	32768	35032	28370	32745	
977	0	32841	32626	32623	32688	35047	28388	32751	
978	0	32753	32730	32532	32641	35041	28388	32750	
979	0	32905	32644	32508	32825	35040	28383	32763	
980	0	33165	32683	32600	32852	35057	28389	32749	
981	0	33088	32711	32406	32592	35052	28391	32738	
982	0	32646	32614	32723	32632	35049	28388	32749	
983	0	32726	32626	32573	32767	35039	28401	32758	
984	0	32514	32807	32687	32740	35047	28377	32767	
985	0	32893	32769	32742	32720	35078	28409	32742	
986	0	32686	32742	32691	32676	35043	28388	32754	
987	0	32690	32656	32913	32750	35066	28389	32749	
988	0	32834	32679	32511	32653	35065	28391	32763	
989	0	32921	32742	32562	32563	35068	28408	32743	
990	0	32994	32774	32351	32673	35047	28397	32736	
991	0	33192	32746	32530	32804	35045	28401	32745	
992	0	32696	32733	32550	32794	35062	28396	32737	
993	0	32773	32552	32722	32767	35052	28396	32751	
994	0	32798	32535	32647	32615	35037	28401	32774	
995	0	32873	32683	32654	32743	35049	28396	32758	
996	0	32708	32543	32717	32658	35052	28378	32749	
997	0	33064	32707	32670	32713	35060	28393	32759	
998	0	32710	32697	32594	32752	35083	28392	32762	
999	0	32872	32830	32635	32723	35047	28391	32759	
1000	0	33048	32599	32674	32788	35035	28392	32775	
1001	0	32423	32545	32297	32589	35079	28393	32745	
1002	0	32356	32719	32738	32798	35060	28393	32754	
1003	0	32826	32607	32550	32803	35065	28406	32749	
1004	0	32522	32528	32600	32690	35059	28400	32739	
1005	0	32690	32775	32477	32640	35046	28394	32759	
1006	0	32864	32674	32888	32747	35063	28405	32747	
1007	0	32599	32745	32668	32829	35067	28402	32745	
1008	0	32514	32700	32531	32858	35077	28390	32758	
1009	0	33030	32720	32647	32739	35026	28387	32768	
1010	0	32554	32647	32672	32719	35055	28384	32764	
1011	0	32634	32727	32790	32666	35053	28393	32759	
1012	0	32818	32696	33080	32812	35038	28399	32769	
1013	0	33072	32730	32472	32642	35064	28414	32766	
1014	0	32744	32787	32654	32770	35060	28390	32773	
1015	0	32998	32702	32512	32747	35060	28407	32769	
1016	0	33159	32560	32605	32635	35061	28410	32752	
1017	0	32628	32707	32583	32770	35051	28376	32769	
1018	0	32752	32690	32674	32800	35045	28404	32759	
1019	0	32708	32772	32715	32775	35034	28382	32775	
1020	0	32634	32855	32443	32713	35037	28390	32775	
1021	0	32685	32553	32659	32773	35055	28386	32765	
1022	0	32672	32688	32598	32687	35043	28375	32766	
1023	0	32996	32711	32835	32797	35066	28395	32758	
1024	0	32808	32775	32534	32623	35037	28407	32767	
1025	0	32927	32738	32658	32818	35041	28406	32765	
1026	0	32794	32615	32428	32643	35059	28383	32762	
1027	0	32770	32694	32530	32694	35067	28389	32768	
1028	0	32785	32771	32711	32822	35047	28400	32773	
1029	0	32635	32676	32447	32705	35082	28393	32775	
1030	0	32647	32687	32594	32813	35101	28410	32767	
1031	0	32864	32606	32571	32816	35071	28412	32765	
1032	0	32895	32775	32615	32806	35077	28391	32775	
1033	0	32678	32617	32722	32628	35055	28413	32775	
1034	0	32550	32627	32815	32775	35077	28395	32775	
1035	0	32824	32610	32426	32771	35067	28395	32775	
1036	0	32640	32671	32593	32843	35071	28397	32773	
1037	0	32868	32619	32577	32656	35073	28393	32791	
1038	0	32611	32530	32822	32800	35079	28389	32772	
1039	0	32676	32719	32765	32745	35068	28399	32775	
1040	0	32676	32714	32663	32708	35060	28400	32784	
1041	0	32647	32685	32562	32693	35077	28431	32758	
1042	0	33052	32559	32636	32538	35110	28424	32756	
1043	0	32756	32761	32835	32775	35067	28396	32763	
1044	0	32270	32827	32927	32958	35061	28414	32763	
1045	0	32822	32763	32814	32678	35054	28415	32763	
1046	0	32903	32631	32635	32678	35047	28388	32772	
1047	0	32996	32583	32751	32775	35055	28407	32793	
1048	0	32349	32640	32653	32611	35047	28391	32798	
1049	0	33027	32753	32633	32775	35090	28395	32760	
1050	0	32742	32794	32702	32775	35063	28404	32731	
1051	0	32848	32547	32627	32810	35076	28401	32769	
1052	0	32854	32629	32666	32672	35055	28392	32772	
1053	0	32984	32734	32454	32775	35026	28392	32775	
1054	0	33028	32729	32640	32657	35047	28365	32769	
1055	0	32943	32694	32706	32797	35030	28378	32775	
1056	0	32483	32682	32576	32749	35059	28384	32768	
1057	0	32596	32595	32587	32726	35043	28391	32767	
1058	0	32753	32649	32450	32669	35063	28394	32763	
1059	0	32845	32667	32467	32677	35074	28383	32754	
1060	0	33148	32637	32370	32733	35047	28385	32763	
1061	0	32504	32631	32943	32727	35060	28377	32759	
1062	0	32912	32814	32873	32647	35041	28390	32767	
1063	0	32897	32774	32415	32704	35070	28376	32758	
1064	0	32620	32726	32585	32709	35075	28413	32761	
1065	0	32544	32674	32455	32694	35041	28399	32754	
1066	0	32680	32726	32539	32703	35062	28394	32767	
1067	0	32754	32675	32614	32721	35069	28409	32758	
1068	0	32738	32771	32694	32817	35072	28407	32772	
1069	0	32905	32555	32626	32715	35069	28391	32773	
1070	0	32775	32594	32704	32827	35066	28405	32761	
1071	0	32596	32754	32506	32817	35093	28393	32756	
1072	0	32630	32769	32816	32716	35069	28420	32758	
1073	0	32122	32702	32807	32811	35079	28399	32747	
1074	0	32662	32711	32610	32594	35123	28403	32761	
1075	0	32666	32551	32578	32601	35075	28399	32774	
1076	0	32898	32685	32946	32775	35076	28378	32759	
1077	0	32780	32519	32545	32887	35055	28388	32760	
1078	0	33024	32791	32534	32590	35040	28397	32758	
1079	0	32690	32775	32935	32786	35015	28411	32732	
1080	0	32848	32701	32551	32753	35079	28417	32764	
1081	0	32870	32502	32814	32711	35029	28405	32745	
1082	0	32865	32621	32682	32834	35047	28388	32766	
1083	0	32744	32633	32555	32705	35086	28391	32745	
1084	0	32461	32747	32658	32808	35055	28391	32743	
1085	0	32432	32665	32775	32642	35039	28389	32731	
1086	0	33022	32637	32725	32800	35024	28384	32741	
1087	0	32757	32739	32570	32914	35041	28386	32734	
1088	0	32511	32724	32465	32775	35047	28389	32737	
1089	0	32514	32549	32595	32754	35077	28377	32743	
1090	0	32666	32575	32667	32770	35079	28389	32745	
1091	0	32815	32617	32537	32787	35087	28393	32711	
1092	0	33247	32795	32690	32775	35058	28391	32727	
1093	0	32539	32735	32954	32672	35061	28385	32738	
1094	0	32858	32583	32314	32747	35057	28395	32746	
1095	0	32795	32703	32801	32759	35049	28387	32742	
1096	0	32458	32809	32647	32775	35047	28373	32742	
1097	0	32872	32756	32651	32700	35060	28391	32720	
1098	0	32932	32675	32721	32670	35049	28393	32734	
1099	0	32616	32722	32623	32740	35033	28397	32717	
1100	0	32676	32726	32720	32722	35030	28411	32724	
1101	0	32967	32555	32620	32829	35055	28398	32727	
1102	0	32752	32754	32623	32742	35041	28378	32722	
1103	0	32524	32718	32862	32662	35053	28382	32726	
1104	0	32775	32747	32608	32787	35058	28365	32740	
1105	0	32880	32735	32674	32702	35077	28370	32742	
1106	0	32736	32758	32320	32804	35061	28397	32731	
1107	0	32861	32704	32679	32670	35053	28385	32739	
1108	0	32820	32695	32665	32705	34993	28405	32744	
1109	0	32384	32799	32647	32762	35059	28407	32738	
1110	0	32822	32752	32583	32748	35027	28377	32732	
1111	0	32647	32647	32493	32568	35015	28359	32739	
1112	0	32456	32800	32647	32790	35015	28371	32742	
1113	0	32652	32767	32622	32749	35005	28362	32743	
1114	0	33494	32887	32746	32647	35003	28374	32727	
1115	0	32633	32684	32536	32771	35029	28362	32727	
1116	0	32656	32727	32672	32885	35013	28363	32725	
1117	0	32620	32690	32607	32820	35010	28365	32742	
1118	0	32788	32773	32647	32836	35011	28359	32719	
1119	0	33108	32796	32763	32711	35004	28343	32736	
1120	0	32790	32576	32568	32745	34998	28357	32734	
1121	0	32242	32763	32617	32771	34996	28359	32731	
1122	0	32656	32544	32787	32727	35005	28375	32718	
1123	0	32617	32694	32638	32827	35005	28382	32720	
1124	0	32769	32630	32668	32557	35010	28384	32710	
1125	0	33034	32805	32739	32827	34998	28367	32721	
1126	0	32700	32667	32605	32602	35006	28382	32719	
1127	0	32982	32695	32562	32724	35023	28365	32711	
1128	0	32712	32772	32449	32730	34991	28356	32720	
1129	0	32713	32631	33070	32964	34997	28370	32714	
1130	0	32775	32844	32971	32941	35001	28367	32720	
1131	0	32765	32303	32562	32570	35005	28366	32718	
1132	0	32647	32647	32535	32699	34950	28349	32719	
1133	0	32799	32655	32682	32758	34995	28359	32737	
1134	0	32688	32684	32363	32775	35003	28359	32755	
1135	0	32485	32642	32690	32773	35003	28385	32707	
1136	0	32775	32735	32493	32828	34985	28385	32722	
1137	0	32740	32768	32626	32795	34976	28383	32714	
1138	0	33094	32585	32775	32794	34992	28380	32738	
1139	0	32632	32556	32520	32775	34991	28367	32746	
1140	0	32932	32862	32621	32706	34983	28363	32757	
1141	0	32384	32775	32743	32679	34986	28359	32745	
1142	0	33033	32749	32706	32703	35005	28368	32740	
1143	0	32732	32769	32690	32647	34989	28342	32772	
1144	0	32701	32790	32583	32827	35021	28355	32775	
1145	0	32668	32663	32579	32765	34993	28342	32758	
1146	0	32635	32698	32595	32807	34995	28352	32763	
1147	0	32612	32711	32677	32653	35000	28359	32745	
1148	0	32855	32665	32615	32721	34969	28359	32736	
1149	0	32694	32762	33104	32715	34981	28358	32733	
1150	0	32646	32702	32511	32647	34983	28362	32722	
1151	0	32704	32722	32745	32839	34995	28376	32726	
1152	0	32894	32762	32395	32743	34949	28359	32738	
1153	0	32588	32750	32487	32749	34950	28358	32743	
1154	0	32740	32429	32665	32617	34980	28337	32732	
1155	0	33060	32857	32723	32731	34950	28332	32724	
1156	0	32908	32701	32695	32666	34919	28329	32725	
1157	0	32952	32612	32594	32662	34961	28315	32733	
1158	0	32570	32739	32424	32835	34923	28317	32731	
1159	0	32667	32695	32355	32732	34967	28311	32742	
1160	0	33016	32750	32865	32791	34899	28316	32735	
1161	0	32564	32592	32598	32755	34944	28320	32742	
1162	0	32992	32823	32937	32723	34931	28329	32720	
1163	0	32696	32731	32370	32818	34911	28314	32707	
1164	0	32784	32728	32899	32768	34887	28314	32710	
1165	0	33212	32754	32448	32789	34938	28306	32711	
1166	0	32912	32607	32687	32768	34907	28309	32728	
1167	0	32824	32655	32601	32614	34930	28310	32735	
1168	0	32886	32587	32587	33723	34929	28294	32727	
1169	0	32890	32546	32670	32666	34891	28294	32722	
1170	0	32647	32703	32545	32758	34899	28282	32714	
1171	0	32708	32743	32715	32690	34899	28292	32724	
1172	0	32578	32810	32527	32757	34900	28301	32715	
1173	0	32884	32710	32679	32731	34898	28282	32718	
1174	0	32627	32686	32540	32735	34923	28295	32711	
1175	0	32994	32583	32590	32679	34903	28295	32711	
1176	0	32686	32725	32672	32699	34875	28295	32702	
1177	0	32647	32647	32538	32775	34887	28309	32704	
1178	0	32861	32634	32757	32864	34880	28306	32710	
1179	0	32647	32902	32647	32663	34842	28282	32707	
1180	0	32930	32700	33071	32624	34872	28275	32703	
1181	0	33012	32603	32360	32841	34874	28289	32694	
1182	0	32838	32583	32839	32713	34887	28318	32706	
1183	0	32754	32590	32742	32711	34886	28319	32717	
1184	0	32692	32663	32727	32814	34887	28289	32723	
1185	0	32933	32568	32628	32774	34906	28306	32707	
1186	0	32502	32685	32659	32725	34912	28315	32702	
1187	0	32964	32751	32479	32811	34894	28322	32709	
1188	0	32589	32595	32694	32717	34898	28307	32708	
1189	0	32466	32763	32356	32855	34887	28313	32705	
1190	0	32917	32767	32617	32793	34893	28320	32704	
1191	0	32334	32524	32567	32734	34903	28335	32706	
1192	0	32762	32612	32503	32646	34902	28319	32706	
1193	0	32775	32690	32592	32820	34902	28316	32711	
1194	0	33012	32759	32647	32729	34912	28313	32717	
1195	0	32427	32758	32633	32871	34904	28300	32711	
1196	0	32775	32599	32685	32707	34897	28311	32694	
1197	0	32604	32659	32506	33015	34907	28295	32699	
1198	0	32736	32611	32775	32546	34949	28303	32688	
1199	0	32327	32717	32320	32713	34880	28318	32694	
1200	0	32515	32763	32614	32821	34885	28335	32703	
1201	0	32857	32801	32722	32672	34883	28304	32706	
1202	0	32895	32515	32679	32723	34875	28301	32684	
1203	0	32438	32825	32583	32624	34881	28294	32698	
1204	0	32752	32672	32395	32527	34893	28284	32717	
1205	0	32590	32587	32707	32615	34875	28278	32723	
1206	0	32454	32633	32626	32874	34898	28265	32720	
1207	0	32376	32898	32768	32754	34885	28278	32731	
1208	0	32591	32702	32962	32626	34857	28292	32721	
1209	0	32841	32690	32447	32659	34882	28303	32708	
1210	0	33115	32557	32659	32698	34902	28288	32727	
1211	0	32598	32686	32555	32719	34875	28269	32738	
1212	0	33375	32677	32507	32684	34896	28260	32715	
1213	0	32562	32738	32595	32811	34890	28286	32702	
1214	0	32014	32502	32813	32753	34903	28287	32688	
1215	0	32664	32759	32714	32721	34871	28315	32692	
1216	0	32647	32560	32687	32723	34852	28301	32711	
1217	0	32400	33178	32553	32758	34843	28293	32708	
1218	0	32636	32637	32711	32762	34821	28269	32734	
1219	0	32562	32519	32668	32822	34838	28285	32711	
1220	0	32797	32754	32694	32775	34839	28295	32699	
1221	0	33326	33327	32583	32962	34849	28273	32732	
1222	0	33044	32618	32698	32603	34849	28295	32731	
1223	0	32900	32743	32647	32752	34855	28282	32727	
1224	0	32696	32775	32683	32839	34854	28276	32736	
1225	0	32803	32610	32508	32799	34838	28307	32720	
1226	0	32564	32512	32738	32743	34843	28309	32711	
1227	0	32954	32568	32352	32854	34853	28295	32696	
1228	0	32803	32505	32607	32662	34851	28287	32694	
1229	0	32570	32732	32680	32885	34848	28278	32707	
1230	0	33206	32807	32700	32742	34823	28275	32716	
1231	0	32669	32838	32461	32841	34807	28267	32711	
1232	0	32755	32610	32679	32750	34855	28258	32719	
1233	0	32676	33039	32695	32967	34842	28243	32725	
1234	0	32246	32791	32517	33019	34823	28254	32711	
1235	0	32858	32666	32727	32947	34819	28256	32716	
1236	0	32914	32711	32507	32736	34836	28226	32707	
1237	0	32504	32635	32245	32830	34821	28358	32724	
1238	0	32846	32637	32496	32598	34887	28293	32722	
1239	0	32884	32647	33318	33313	34798	28285	32715	
1240	0	32345	32544	32493	32678	34811	28259	32716	
1241	0	32624	32694	32605	32647	34823	28262	32727	
1242	0	32642	32639	32558	32722	34799	28282	32696	
1243	0	32572	32824	32531	32727	34823	28287	32706	
1244	0	32974	32706	32817	32771	34823	28295	32734	
1245	0	32689	32519	32647	32971	34806	28275	32731	
1246	0	32626	32568	32693	32571	34787	28256	32710	
1247	0	32848	32821	32582	32866	34819	28256	32722	
1248	0	32858	32523	32647	33016	34818	28256	32729	
1249	0	32643	32755	32614	32765	34799	28260	32714	
1250	0	33586	32729	32681	32795	34811	28261	32719	
1251	0	32718	32775	32391	32746	34803	28279	32709	
1252	0	33124	32707	32262	32772	34807	28267	32732	
1253	0	32829	32749	32327	32756	34743	28262	32727	
1254	0	32606	32751	32727	32762	34790	28258	32735	
1255	0	32984	32671	32397	32751	34767	28268	32711	
1256	0	33061	32602	32894	33122	34769	28263	32706	
1257	0	32827	32743	32619	32639	34783	28243	32717	
1258	0	32929	32594	32609	32775	34759	28246	32707	
1259	0	32872	32714	32563	32745	34779	28250	32707	
1260	0	32830	32851	32698	32690	34752	28243	32723	
1261	0	32796	32725	32589	32604	34802	28271	32704	
1262	0	32357	32720	32531	32758	34790	28251	32717	
1263	0	32496	32679	32937	32767	34771	28256	32704	
1264	0	32811	32652	32606	32658	34744	28231	32711	
1265	0	32568	32911	32702	32787	34791	28231	32726	
1266	0	32626	32819	32727	32809	34778	28265	32707	
1267	0	32876	32738	32544	32695	34772	28265	32719	
1268	0	32546	32818	32706	32745	34768	28257	32711	
1269	0	32560	32799	32464	32826	34780	28265	32719	
1270	0	32750	32558	32696	32758	34759	28260	32711	
1271	0	32769	32711	32646	32647	34765	28247	32717	
1272	0	33148	33020	32662	33437	34776	28242	32720	
1273	0	32766	32642	32560	32925	34808	28231	32716	
1274	0	32716	32647	32632	32732	34788	28231	32711	
1275	0	32775	32747	32538	32886	34787	28260	32711	
1276	0	32566	32751	32525	32775	34811	28276	32715	
1277	0	32740	32670	32850	32590	34792	28283	32700	
1278	0	32672	32647	32455	32810	34766	28261	32703	
1279	0	33002	32710	32598	32748	34767	28246	32708	
1280	0	32732	32702	32564	32609	34791	28235	32711	
1281	0	33032	32687	32571	32673	34759	28250	32702	
1282	0	32796	32816	32577	32775	34777	28264	32711	
1283	0	32340	32801	32839	33019	34788	28271	32688	
1284	0	32738	32689	32578	32706	34788	28267	32711	
1285	0	33034	32530	32647	32871	34782	28282	32704	
1286	0	32628	32735	32544	32646	34807	28268	32725	
1287	0	32760	32589	32743	32803	34799	28266	32711	
1288	0	32640	32671	32936	32709	34790	28237	32711	
1289	0	32986	32833	32415	32738	34783	28258	32685	
1290	0	32869	32641	32471	32535	34811	28282	32674	
1291	0	32678	32615	32554	32647	34792	28251	32707	
1292	0	32772	32820	32643	32882	34817	28258	32705	
1293	0	32526	32578	32594	32685	34792	28254	32711	
1294	0	32758	32674	32692	32791	34786	28274	32699	
1295	0	32558	32676	32659	32740	34800	28271	32701	
1296	0	32720	32729	32474	32753	34797	28266	32681	
1297	0	32960	32745	32546	32647	34823	28250	32694	
1298	0	32704	32572	32881	32705	34843	28259	32709	
1299	0	32790	32673	32663	32666	34839	28263	32699	
1300	0	32674	32567	32695	32655	34823	28271	32699	
1301	0	32837	32677	32626	32573	34823	28278	32699	
1302	0	32684	33018	32621	32699	34843	28286	32679	
1303	0	33124	32671	32738	32850	34836	28282	32694	
1304	0	32721	32720	32666	32710	34844	28263	32699	
1305	0	32775	32642	32463	32692	34807	28256	32691	
1306	0	32652	32571	32647	32839	34819	28262	32689	
1307	0	32674	32681	32625	32801	34847	28270	32683	
1308	0	32646	32742	32527	32607	34842	28278	32701	
1309	0	33018	32615	32559	32668	34843	28295	32683	
1310	0	32946	32749	32535	32687	34839	28283	32690	
1311	0	32976	32795	32592	32727	34845	28282	32692	
1312	0	32846	32784	32790	32589	34845	28256	32707	
1313	0	32538	32612	32402	32634	34855	28259	32715	
1314	0	32979	32677	32717	32647	34865	28275	32700	
1315	0	32945	32766	32472	32727	34863	28293	32679	
1316	0	33019	32635	32552	32681	34838	28315	32687	
1317	0	32510	32602	32769	32535	34880	28306	32690	
1318	0	32764	32546	32450	32817	34863	28304	32683	
1319	0	32504	32749	32677	32746	34855	28281	32706	
1320	0	33606	32738	32816	32754	34855	28282	32707	
1321	0	32612	32735	32396	32722	34823	28246	32711	
1322	0	32772	32647	32646	32775	34875	28266	32691	
1323	0	32628	32773	32688	32681	34852	28274	32700	
1324	0	32690	32596	32763	32663	34855	28295	32698	
1325	0	32632	32745	32509	32748	34894	28301	32690	
1326	0	32764	32807	32711	32575	34875	28292	32711	
1327	0	32706	32834	32646	32830	34854	28293	32717	
1328	0	32871	32676	32455	32646	34903	28310	32687	
1329	0	33008	32711	32617	32668	34875	28295	32698	
1330	0	33008	32714	32667	32745	34887	28294	32692	
1331	0	32696	32473	32721	32732	34902	28295	32683	
1332	0	32819	32647	32592	32790	34871	28319	32674	
1333	0	32970	32573	32487	32655	34880	28325	32700	
1334	0	32541	32625	32839	32742	34898	28295	32692	
1335	0	32600	32572	32666	32719	34893	28303	32734	
1336	0	32586	32613	32447	32670	34887	28295	32702	
1337	0	32892	32672	32758	32713	34907	28292	32699	
1338	0	32654	32711	32668	32765	34887	28336	32698	
1339	0	32762	32752	32788	32711	34911	28316	32710	
1340	0	32706	32731	32695	32775	34903	28313	32698	
1341	0	32787	32680	32587	32642	34902	28303	32711	
1342	0	32847	32549	32699	32555	34886	28295	32706	
1343	0	32826	32775	32981	32775	34853	28295	32692	
1344	0	32696	32530	32786	32751	34905	28294	32705	
1345	0	32708	32671	32536	32592	34873	28303	32704	
1346	0	32960	32802	32687	32707	34878	28295	32690	
1347	0	32876	32644	32672	32793	34895	28286	32711	
1348	0	32839	32640	32519	32632	34898	28303	32694	
1349	0	32858	32726	32579	32741	34868	28290	32694	
1350	0	32971	32609	32711	32661	34887	28300	32701	
1351	0	32647	32587	32623	32939	34883	28311	32708	
1352	0	32844	32578	32486	32767	34882	28304	32700	
1353	0	32848	32843	32575	32817	34868	28315	32701	
1354	0	32903	32612	32682	32950	34893	28307	32700	
1355	0	32852	32579	32621	32545	34876	28302	32687	
1356	0	32788	32775	32621	32767	34903	28292	32718	
1357	0	32573	32872	32946	32914	34884	28289	32711	
1358	0	32622	32559	32589	32756	34903	28299	32728	
1359	0	32784	32809	32756	32818	34914	28319	32722	
1360	0	32883	32813	32714	32739	34920	28314	32735	
1361	0	33126	32602	32769	32754	34912	28308	32726	
1362	0	32546	32785	32587	32746	34904	28318	32713	
1363	0	32775	32676	32813	32670	34903	28313	32684	
1364	0	32684	32629	32467	32557	34914	28315	32697	
1365	0	32632	32739	32688	32800	34903	28324	32694	
1366	0	32800	32603	32723	32838	34913	28338	32698	
1367	0	32819	32653	32598	32690	34915	28311	32699	
1368	0	32646	32644	32599	32835	34907	28295	32706	
1369	0	32684	32701	32514	32722	34917	28295	32701	
1370	0	32788	32735	32645	32791	34914	28304	32715	
1371	0	32822	32727	32671	32809	34930	28303	32711	
1372	0	32902	32773	32606	32858	34914	28326	32709	
1373	0	32672	32534	32854	32586	34924	28320	32719	
1374	0	32748	32563	32459	32562	34900	28341	32702	
1375	0	32772	32720	32633	32786	34939	28327	32724	
1376	0	32865	32742	32793	32775	34948	28335	32722	
1377	0	32726	32592	32543	32824	34898	28334	32702	
1378	0	32696	32663	32591	32803	34934	28314	32699	
1379	0	32638	32700	32608	32636	34922	28310	32691	
1380	0	32741	32635	32749	32704	34934	28320	32711	
1381	0	32628	32663	32769	32775	34887	28318	32699	
1382	0	32624	32813	32654	32729	34922	28315	32696	
1383	0	32731	32823	32546	32791	34903	28325	32719	
1384	0	32718	32660	32720	32826	34903	28322	32711	
1385	0	32758	32613	32544	32574	34926	28319	32725	
1386	0	32759	32638	32461	32770	34902	28311	32719	
1387	0	32912	32751	32754	32711	34938	28315	32715	
1388	0	32606	32647	32892	32698	34883	28301	32725	
1389	0	32678	32647	32694	32604	34906	28316	32711	
1390	0	32696	32655	32658	32751	34911	28305	32724	
1391	0	32802	32646	32477	32798	34912	28322	32722	
1392	0	32820	32583	32774	32775	34887	28333	32711	
1393	0	32795	32767	32493	32731	34919	28339	32729	
1394	0	32658	32672	32633	32677	34909	28311	32747	
1395	0	32806	32659	32411	32767	34906	28318	32744	
1396	0	32832	32679	32711	32628	34900	28313	32745	
1397	0	32876	32686	32459	32825	34911	28310	32739	
1398	0	32756	32551	32775	32753	34907	28301	32743	
1399	0	32658	32763	32639	32619	34882	28326	32743	
1400	0	33008	32775	32699	32712	34887	28299	32723	
1401	0	32615	32597	32548	32787	34886	28295	32738	
1402	0	33152	32603	32607	32786	34880	28310	32741	
1403	0	32740	32809	32702	32775	34876	28310	32734	
1404	0	32711	32811	32711	32805	34905	28303	32729	
1405	0	33146	32669	32653	32682	34869	28310	32734	
1406	0	32650	32686	32521	32736	34891	28291	32739	
1407	0	32610	32721	32526	32668	34871	28290	32743	
1408	0	32612	32658	32662	32677	34894	28303	32738	
1409	0	32336	32711	32500	32771	34857	28301	32747	
1410	0	32816	32749	32701	32815	34887	28317	32743	
1411	0	32538	32669	32451	32726	34855	28301	32742	
1412	0	32835	32647	32589	32710	34858	28303	32735	
1413	0	32670	32741	32734	32694	34902	28283	32737	
1414	0	32775	32802	32529	32765	34867	28272	32743	
1415	0	32731	32499	32753	32747	34850	28290	32743	
1416	0	32775	32725	32699	32655	34823	28275	32743	
1417	0	32489	32734	32599	32645	34874	28242	32755	
1418	0	32703	32699	32810	32725	34847	28263	32750	
1419	0	32568	32711	32674	32695	34872	28257	32740	
1420	0	32816	32707	32734	32719	34866	28270	32730	
1421	0	32908	32563	32694	32775	34872	28280	32743	
1422	0	32903	32700	32758	32863	34851	28280	32745	
1423	0	32476	32686	32637	32664	34869	28292	32737	
1424	0	32749	32786	32495	32755	34848	28279	32749	
1425	0	32756	32915	32627	32856	34836	28294	32745	
1426	0	32879	32557	32575	32765	34856	28279	32739	
1427	0	32794	32622	32715	32671	34863	28288	32762	
1428	0	32932	32531	32640	32646	34852	28288	32745	
1429	0	33053	32606	32739	32656	34886	28294	32754	
1430	0	32900	32950	32994	32878	34882	28290	32766	
1431	0	32532	32838	32924	32991	34870	28295	32735	
1432	0	33088	32570	32691	32503	34852	28293	32746	
1433	0	32790	32748	32673	32654	34880	28288	32766	
1434	0	32730	32667	32741	32775	34870	28306	32758	
1435	0	32624	32742	32566	32852	34848	28272	32771	
1436	0	32755	32681	32568	32621	34850	28274	32739	
1437	0	32672	32611	32552	32758	34887	28303	32722	
1438	0	32846	32750	32679	32819	34870	28314	32721	
1439	0	32832	32679	32687	32672	34863	28314	32734	
1440	0	32812	32698	32544	32814	34852	28308	32752	
1441	0	32386	32759	32483	32792	34874	28315	32745	
1442	0	32831	32722	32736	32619	34845	28294	32757	
1443	0	32566	32684	32858	32775	34887	28286	32755	
1444	0	32958	32625	32518	32747	34875	28306	32758	
1445	0	32598	32823	32724	32631	34887	28295	32763	
1446	0	32628	32619	32582	32791	34875	28309	32763	
1447	0	32864	32583	32455	32751	34844	28303	32752	
1448	0	32681	32664	32647	32679	34874	28296	32739	
1449	0	32808	32737	32420	32690	34866	28291	32741	
1450	0	32704	32705	32495	32838	34874	28270	32725	
1451	0	32573	32633	32476	32775	34905	28292	32730	
1452	0	32512	32541	32573	32775	34872	28309	32723	
1453	0	32924	32577	32581	32628	34877	28288	32716	
1454	0	32652	32724	32685	32775	34892	28295	32722	
1455	0	32923	32610	32623	32758	34868	28316	32722	
1456	0	33110	32767	32562	32763	34887	28314	32720	
1457	0	32705	32564	32605	32726	34863	28300	32722	
1458	0	32548	32743	32799	32775	34883	28306	32727	
1459	0	32632	32775	32733	32825	34875	28299	32732	
1460	0	32742	32763	32642	32765	34855	28274	32728	
1461	0	32996	32543	32615	32806	34870	28269	32731	
1462	0	32583	32717	32574	32763	34849	28278	32711	
1463	0	32791	32717	32694	32763	34883	28280	32733	
1464	0	32701	32742	32517	32827	34848	28295	32721	
1465	0	32772	32833	32684	32681	34879	28283	32705	
1466	0	32850	32598	32655	32699	34863	28294	32698	
1467	0	32878	32672	32518	32806	34845	28274	32702	
1468	0	32790	32775	32850	32775	34875	28294	32724	
1469	0	33043	32775	32772	32930	34854	28273	32726	
1470	0	32745	32834	32566	32711	34857	28276	32723	
1471	0	32700	32647	32681	32711	34867	28295	32727	
1472	0	32648	32699	32628	32846	34884	28302	32707	
1473	0	32748	32711	32617	32652	34881	28295	32711	
1474	0	32684	32739	32664	32859	34859	28304	32716	
1475	0	32951	32677	32603	32890	34888	28314	32696	
1476	0	32658	32708	32900	32641	34879	28315	32700	
1477	0	32722	32719	32464	32815	34886	28306	32694	
1478	0	32679	32658	32547	32624	34884	28317	32699	
1479	0	32852	32815	32731	32804	34866	28301	32713	
1480	0	32760	32791	32802	32771	34838	28291	32698	
1481	0	33074	32704	32487	32759	34886	28302	32694	
1482	0	32854	32578	32735	32829	34887	28295	32701	
1483	0	32606	32629	32542	32707	34885	28308	32711	
1484	0	32536	32711	32510	32647	34885	28306	32710	
1485	0	32772	32754	32633	32790	34887	28301	32708	
1486	0	32838	32729	32598	32891	34874	28290	32699	
1487	0	32420	32699	32597	32719	34906	28302	32710	
1488	0	33159	32535	32518	32678	34881	28305	32697	
1489	0	32832	32617	32452	32658	34902	28309	32703	
1490	0	32788	32691	32597	32670	34885	28322	32700	
1491	0	32718	32738	32548	32443	34865	28278	32719	
1492	0	32704	32601	32763	32866	34880	28311	32707	
1493	0	32754	32684	32607	32849	34903	28295	32708	
1494	0	32920	32751	32570	32771	34870	28309	32706	
1495	0	33151	32732	32679	32663	34899	28295	32737	
1496	0	32681	32772	32705	32771	34870	28313	32708	
1497	0	32804	32659	32608	32706	34887	28329	32711	
1498	0	32688	32634	32733	32797	34898	28300	32704	
1499	0	32771	32663	32647	32698	34902	28295	32707	
1500	0	33287	32579	32612	32621	34913	28310	32697	
1501	0	32664	32621	32653	32879	34914	28318	32703	
1502	0	32466	32986	32966	33106	34887	28315	32703	
1503	0	32758	32745	32720	32771	34887	28327	32697	
1504	0	32810	32666	32660	32659	34902	28295	32715	
1505	0	32713	32653	32647	32655	34887	28324	32722	
1506	0	32773	32711	32599	32727	34883	28286	32731	
1507	0	33056	32544	32647	32589	34895	28291	32700	
1508	0	32646	32711	32730	32771	34904	28303	32692	
1509	0	32888	32809	32699	32738	34863	28320	32734	
1510	0	32562	32703	32671	32819	34895	28314	32709	
1511	0	32851	32636	32647	32636	34877	28313	32727	
1512	0	32898	32709	32623	32796	34877	28295	32723	
1513	0	32676	32716	32711	32759	34855	28280	32729	
1514	0	32878	32588	32664	32643	34887	28290	32722	
1515	0	32848	32647	32493	32775	34900	28295	32733	
1516	0	32697	32658	32624	32668	34900	28304	32726	
1517	0	32660	32620	32304	32647	34870	28288	32728	
1518	0	32856	32757	32519	32758	34871	28281	32748	
1519	0	32682	32771	32492	32766	34859	28295	32723	
1520	0	32811	32623	32603	32703	34873	28284	32721	
1521	0	33070	32742	32707	32738	34853	28292	32711	
1522	0	32680	32609	32691	32732	34878	28303	32697	
1523	0	33019	32758	32676	32746	34854	28286	32711	
1524	0	32800	32711	32691	32721	34850	28268	32725	
1525	0	32703	32892	32434	32683	34855	28282	32715	
1526	0	32839	32767	32607	32761	34862	28290	32722	
1527	0	32829	32719	32489	32669	34899	28295	32714	
1528	0	32608	32677	32635	32803	34873	28288	32739	
1529	0	32522	32695	32607	32860	34868	28285	32732	
1530	0	32769	32715	32591	32507	34849	28282	32753	
1531	0	32916	32851	32602	32959	34873	28295	32740	
1532	0	32562	32504	32674	32725	34880	28302	32734	
1533	0	32808	32544	32696	32799	34871	28295	32723	
1534	0	32963	32708	32540	32793	34870	28286	32742	
1535	0	32360	32790	32719	32792	34837	28295	32723	
1536	0	32526	32682	32566	32807	34860	28307	32722	
1537	0	32552	32583	32831	32751	34903	28311	32736	
1538	0	32784	32464	32677	32685	34886	28295	32751	
1539	0	32644	32599	32519	32647	34866	28268	32751	
1540	0	32556	32711	32560	32742	34861	28275	32751	
1541	0	32870	32570	32404	32723	34852	28285	32758	
1542	0	32888	32640	32548	32747	34870	28299	32741	
1543	0	32712	32734	32615	32625	34871	28311	32749	
1544	0	32688	32735	32721	32631	34870	28302	32761	
1545	0	32769	32723	32699	32679	34872	28311	32731	
1546	0	32637	32674	32439	32771	34886	28314	32751	
1547	0	32665	32654	32626	32681	34877	28294	32746	
1548	0	32775	32687	32505	32699	34877	28294	32739	
1549	0	32933	32699	32571	32822	34882	28294	32742	
1550	0	32630	32827	32647	32786	34879	28303	32735	
1551	0	32720	32564	32726	32801	34881	28295	32733	
1552	0	32744	32711	32807	32838	34887	28295	32743	
1553	0	32836	32775	32519	32736	34891	28295	32749	
1554	0	32540	32543	32482	32773	34913	28306	32742	
1555	0	32848	32793	32644	32818	34887	28312	32738	
1556	0	32700	32775	32550	32803	34910	28311	32730	
1557	0	32676	32688	32761	32839	34886	28290	32743	
1558	0	32728	32749	32802	32647	34898	28295	32749	
1559	0	32884	32767	32590	32786	34861	28317	32757	
1560	0	32740	32583	32515	32709	34861	28306	32755	
1561	0	32996	32942	32683	32736	34870	28295	32744	
1562	0	32697	32775	32433	32720	34885	28313	32748	
1563	0	32797	32727	33030	32678	34899	28307	32766	
1564	0	32676	32614	32555	32985	34891	28290	32749	
1565	0	32781	32909	32707	32892	34907	28304	32749	
1566	0	32896	32687	32556	32775	34898	28295	32745	
1567	0	32908	32640	32830	32710	34881	28336	32736	
1568	0	32856	33115	32662	32899	34924	28310	32739	
1569	0	33082	32622	32631	32583	34894	28295	32758	
1570	0	32763	32667	32598	32683	34899	28327	32747	
1571	0	32771	32609	32681	32795	34857	28294	32760	
1572	0	32252	32727	32989	33159	34870	28301	32745	
1573	0	32635	32691	32562	32786	34872	28306	32751	
1574	0	32822	32647	32571	32680	34886	28287	32741	
1575	0	32789	32582	32653	32391	34904	28306	32751	
1576	0	32927	32691	32615	32711	34923	28293	32765	
1577	0	32762	32730	32695	32642	34887	28295	32749	
1578	0	32636	32502	32591	32749	34881	28322	32719	
1579	0	32740	32736	32741	32736	34868	28320	32736	
1580	0	32851	32736	32363	32735	34892	28339	32745	
1581	0	32460	32771	32611	32818	34863	28309	32752	
1582	0	33188	32795	32767	32863	34863	28295	32742	
1583	0	32824	32588	32626	32844	34881	28311	32725	
1584	0	32694	32583	32681	32791	34877	28285	32765	
1585	0	32680	32738	32553	32729	34902	28310	32733	
1586	0	32760	32571	32434	32642	34920	28320	32761	
1587	0	32738	32658	32765	32765	34890	28318	32766	
1588	0	32902	32700	32527	32688	34887	28312	32766	
1589	0	32692	32704	32635	32659	34879	28310	32743	
1590	0	32845	32702	32551	32732	34887	28308	32748	
1591	0	32604	32769	32647	32647	34895	28332	32729	
1592	0	32745	32569	33067	32769	34895	28317	32731	
1593	0	32581	32489	32686	32711	34894	28319	32732	
1594	0	32768	32826	32654	32771	34895	28319	32739	
1595	0	32723	32583	32502	32719	34882	28333	32719	
1596	0	32682	32599	32434	32612	34905	28303	32730	
1597	0	33037	32775	32935	32838	34908	28315	32720	
1598	0	32646	32655	32463	32839	34894	28314	32746	
1599	0	32750	32812	32628	32967	34932	28333	32733	
1600	0	32775	32690	33114	32738	34917	28302	32743	
1601	0	32728	32687	32516	32573	34903	28314	32742	
1602	0	32906	32638	32551	32706	34911	28313	32742	
1603	0	33322	32735	32515	32770	34928	28295	32750	
1604	0	32724	32775	32591	32665	34900	28314	32743	
1605	0	32825	32525	32890	32674	34881	28304	32734	
1606	0	32808	32727	32593	32669	34902	28320	32710	
1607	0	32752	32711	32615	32743	34919	28316	32715	
1608	0	32684	32729	32731	32788	34909	28305	32727	
1609	0	32850	32633	32677	32772	34902	28317	32732	
1610	0	32762	32640	32391	32859	34864	28291	32731	
1611	0	32504	32750	32520	32775	34873	28307	32742	
1612	0	32802	32481	32683	32643	34905	28327	32728	
1613	0	32609	32686	32599	32676	34913	28324	32729	
1614	0	32635	32775	32544	32742	34886	28300	32745	
1615	0	32732	32666	32694	32716	34920	28322	32722	
1616	0	32701	32707	32623	32846	34923	28304	32714	
1617	0	32726	32621	32766	32738	34883	28303	32718	
1618	0	32792	32775	32805	32630	34898	28306	32725	
1619	0	32805	32825	32615	32751	34906	28306	32711	
1620	0	32720	32730	32621	32592	34906	28315	32731	
1621	0	32636	32720	32663	32627	34939	28331	32739	
1622	0	32696	32719	32621	32811	34938	28347	32724	
1623	0	32790	32591	32694	32711	34969	28343	32743	
1624	0	32664	32617	32551	32726	34921	28351	32715	
1625	0	32745	32952	32590	32775	34934	28327	32705	
1626	0	32578	32749	32679	32747	34902	28340	32711	
1627	0	32843	32710	32799	32802	34944	28339	32730	
1628	0	32754	32698	32615	32690	34950	28335	32723	
1629	0	32976	32701	32659	32690	34943	28292	32738	
1630	0	32226	32727	32506	32683	34914	28310	32720	
1631	0	32966	32714	32864	32792	34957	28346	32722	
1632	0	32787	32604	32804	32706	34972	28352	32738	
1633	0	32800	32835	32810	32527	34944	28337	32723	
1634	0	32640	32626	32815	32765	34951	28336	32727	
1635	0	32952	32825	32817	32775	34958	28354	32722	
1636	0	32615	32731	32473	32793	34976	28351	32708	
1637	0	32706	32711	32455	32698	34967	28352	32722	
1638	0	33106	32763	32524	32647	34981	28345	32719	
1639	0	32878	32552	32455	32651	34996	28359	32711	
1640	0	33056	32835	32471	32835	34951	28359	32704	
1641	0	32200	32966	32825	33101	34977	28364	32704	
1642	0	32576	32485	32609	32720	34965	28367	32682	
1643	0	32766	32635	32518	32607	34959	28354	32699	
1644	0	32880	33101	32596	32667	35005	28360	32715	
1645	0	33650	32668	32460	32775	34987	28384	32729	
1646	0	32880	32667	32546	32790	34983	28376	32707	
1647	0	32756	32583	32645	32827	34959	28357	32693	
1648	0	32865	32538	32899	32800	34979	28369	32685	
1649	0	32506	32717	32633	32756	35009	28357	32683	
1650	0	32714	32692	32695	32590	34983	28330	32695	
1651	0	32464	32511	32613	32628	34971	28319	32703	
1652	0	33279	32601	32727	32736	34943	28327	32711	
1653	0	32775	32558	32675	32719	34967	28320	32708	
1654	0	32808	32667	32757	32638	34946	28314	32720	
1655	0	32820	32756	32494	32711	34951	28349	32723	
1656	0	32866	32655	32583	32749	34992	28339	32727	
1657	0	32626	32751	32683	32690	34983	28319	32754	
1658	0	32528	32717	32601	32733	34982	28308	32729	
1659	0	32756	32662	32601	32792	34967	28321	32731	
1660	0	32936	32773	32601	32699	34961	28341	32732	
1661	0	32543	32745	32631	32839	34962	28343	32711	
1662	0	32954	32694	32530	32662	34999	28375	32717	
1663	0	33058	32476	32762	32687	34990	28364	32702	
1664	0	32972	32715	32549	32729	34983	28342	32719	
1665	0	32786	32747	32327	32704	34976	28357	32735	
1666	0	32628	32555	32655	32711	34966	28374	32735	
1667	0	32709	32771	32694	32619	34970	28372	32734	
1668	0	33152	32723	32702	32732	34973	28349	32726	
1669	0	32900	32559	32775	32647	34987	28351	32748	
1670	0	32912	32608	32607	32839	35009	28344	32729	
1671	0	32656	32569	32677	32759	34988	28346	32742	
1672	0	32474	32671	32700	32669	34985	28359	32727	
1673	0	32864	32602	32621	32829	35001	28375	32733	
1674	0	33020	32729	32773	32795	34973	28372	32713	
1675	0	32705	32543	32563	32833	34983	28380	32711	
1676	0	32650	32722	32693	32726	34963	28359	32738	
1677	0	32595	32839	32725	32635	34951	28356	32753	
1678	0	32590	32647	32579	32855	34975	28359	32746	
1679	0	32765	32759	32452	32686	34948	28348	32760	
1680	0	32848	32770	32638	32637	34997	28370	32751	
1681	0	32806	32583	32884	32790	34987	28371	32754	
1682	0	32684	32738	32481	32720	34983	28367	32762	
1683	0	32998	32738	32571	32646	34991	28368	32763	
1684	0	32750	32623	32863	32694	34990	28359	32741	
1685	0	32924	32804	32666	32839	34983	28358	32742	
1686	0	32908	32745	32707	32719	34950	28359	32745	
1687	0	32623	32621	32531	32823	34966	28339	32740	
1688	0	32775	32758	32676	32722	34962	28350	32738	
1689	0	33065	32735	32579	32769	34976	28364	32739	
1690	0	32898	32749	32613	32769	34967	28352	32759	
1691	0	32855	32681	32658	32725	34998	28367	32765	
1692	0	32692	32719	32619	32599	34991	28351	32775	
1693	0	32784	32739	32557	32725	34984	28359	32759	
1694	0	32638	32760	32591	32673	34965	28366	32766	
1695	0	32600	32562	32617	32717	34968	28338	32789	
1696	0	32644	32715	32669	32690	34938	28325	32775	
1697	0	32642	32550	32800	32757	34919	28320	32769	
1698	0	32883	32735	32621	32772	34927	28323	32785	
1699	0	33045	32578	32549	32634	34951	28329	32775	
1700	0	32760	32676	32657	32759	34934	28341	32773	
1701	0	32852	32655	32815	32807	34934	28351	32765	
1702	0	33086	32735	32691	32804	34950	28333	32773	
1703	0	32681	32498	32546	32710	34943	28317	32775	
1704	0	33124	32791	32727	32752	34962	28316	32794	
1705	0	32592	32690	32506	32775	34951	28320	32775	
1706	0	32711	32609	32580	32698	34902	28306	32773	
1707	0	33452	32685	32711	32571	34907	28286	32769	
1708	0	32731	32592	33027	32848	34912	28299	32761	
1709	0	32534	32883	32747	33014	34939	28297	32765	
1710	0	32722	32581	32748	32723	34912	28304	32748	
1711	0	32740	32679	33014	32521	34921	28291	32756	
1712	0	32810	32770	32303	32745	34885	28282	32767	
1713	0	32706	32659	32569	32732	34909	28288	32751	
1714	0	33060	32695	32583	32738	34927	28261	32754	
1715	0	32658	32759	32802	32653	34906	28277	32730	
1716	0	32787	32685	32641	32738	34923	28295	32733	
1717	0	32672	32715	32447	32786	34893	28295	32740	
1718	0	32544	32652	33245	32799	34891	28310	32738	
1719	0	32739	32692	32510	32820	34882	28295	32735	
1720	0	32600	32732	32768	32758	34868	28288	32743	
1721	0	32304	32690	32455	32683	34887	28288	32735	
1722	0	32846	32714	32632	32761	34887	28280	32742	
1723	0	32669	32614	32573	32832	34932	28302	32763	
1724	0	32934	32784	32659	32738	34930	28324	32773	
1725	0	32612	32626	32731	32729	34934	28324	32775	
1726	0	32674	32762	32582	32807	34898	28338	32749	
1727	0	32839	32617	32553	32818	34911	28334	32745	
1728	0	32698	32919	32359	32667	34935	28335	32745	
1729	0	32806	32557	32452	32625	34916	28339	32747	
1730	0	32954	32975	33095	32687	34944	28321	32758	
1731	0	32452	32763	32775	32742	34944	28343	32738	
1732	0	32582	32645	32641	32795	34927	28349	32773	
1733	0	32647	32683	32706	32791	34930	28330	32775	
1734	0	32677	32756	32583	32671	34982	28349	32760	
1735	0	32894	32745	32839	32711	34951	28346	32775	
1736	0	32665	32643	32628	32730	34956	28360	32759	
1737	0	32810	32705	32475	32773	34951	28365	32775	
1738	0	32619	32721	32647	32688	34951	28371	32766	
1739	0	32947	32796	32614	32772	34969	28359	32762	
1740	0	32501	32614	32560	32769	34973	28368	32756	
1741	0	32658	32698	32638	32698	35013	28368	32754	
1742	0	32800	32683	32474	32809	34959	28346	32741	
1743	0	32816	32742	32664	32798	34951	28354	32735	
1744	0	32744	32671	32482	32768	34968	28353	32771	
1745	0	32916	32689	32411	32775	34983	28357	32770	
1746	0	32520	32671	32846	32706	34999	28339	32775	
1747	0	32804	32633	32657	32686	34970	28344	32764	
1748	0	32748	32641	32614	32666	34951	28343	32759	
1749	0	32764	32748	32402	32731	34947	28329	32775	
1750	0	33004	32767	32690	32775	34982	28335	32763	
1751	0	32604	32758	32632	32736	34963	28343	32775	
1752	0	32696	32714	32691	32775	34951	28349	32762	
1753	0	32757	32595	32574	32757	34951	28349	32756	
1754	0	32443	32510	32548	32804	34945	28333	32762	
1755	0	32933	32752	32655	32816	34945	28348	32769	
1756	0	32528	32606	32327	32620	34927	28336	32754	
1757	0	32762	32690	32513	32690	34922	28335	32771	
1758	0	32892	32670	32447	32788	34931	28327	32762	
1759	0	33062	32715	32794	32646	34930	28324	32769	
1760	0	32738	32790	32690	32764	34951	28308	32787	
1761	0	32628	32690	32623	32764	34937	28322	32775	
1762	0	32824	32699	32631	32688	34930	28316	32758	
1763	0	32727	32630	32691	32883	34924	28319	32775	
1764	0	32885	32722	32555	32775	34969	28327	32769	
1765	0	32637	32743	32734	32627	34946	28332	32771	
1766	0	32606	32544	32615	32742	34934	28339	32775	
1767	0	32936	32726	32662	32734	34943	28339	32775	
1768	0	32822	32699	32728	32749	34951	28333	32775	
1769	0	32634	32563	32557	32793	34940	28351	32775	
1770	0	32526	32762	32570	32804	34938	28336	32775	
1771	0	32739	32748	32461	32746	34951	28332	32775	
1772	0	33112	32734	32568	32642	34985	28350	32771	
1773	0	32808	32734	32608	32631	34958	28357	32770	
1774	0	32879	32546	32630	32739	34960	28355	32771	
1775	0	32676	32721	32671	32790	34943	28343	32775	
1776	0	32930	32859	32764	32690	34968	28359	32770	
1777	0	33134	32748	32498	32681	34951	28321	32786	
1778	0	32882	32704	32609	32691	34951	28347	32766	
1779	0	33194	32791	32489	32747	34966	28339	32775	
1780	0	32357	32743	32916	33011	34936	28340	32775	
1781	0	32580	32631	32662	32643	34968	28355	32769	
1782	0	33177	32684	32515	32700	34918	28356	32756	
1783	0	32909	32683	32639	32723	34947	28359	32754	
1784	0	33115	32663	32685	32763	34943	28367	32775	
1785	0	32666	32762	32600	32583	34951	28351	32775	
1786	0	32736	32707	32602	32822	34969	28338	32754	
1787	0	33004	32745	32826	32841	34978	28346	32751	
1788	0	32936	32679	32403	32706	34946	28359	32756	
1789	0	32805	32607	32677	32650	34935	28334	32772	
1790	0	32658	32605	32583	32775	34928	28339	32763	
1791	0	32704	32688	32647	32723	34941	28325	32769	
1792	0	32995	32775	32375	32716	34947	28338	32769	
1793	0	32751	32718	32642	32732	34939	28310	32763	
1794	0	32994	32645	32511	32630	34943	28327	32762	
1795	0	32775	32749	32824	32867	34929	28338	32775	
1796	0	32536	32694	32513	32705	34951	28340	32768	
1797	0	32644	32498	32666	32647	34932	28327	32752	
1798	0	32080	32744	32674	32805	34929	28333	32750	
1799	0	33072	32735	32567	32696	34920	28319	32775	
1800	0	32611	32759	32553	32762	34896	28333	32754	
1801	0	33045	32643	32637	32686	34912	28320	32761	
1802	0	32651	32759	32794	32697	34919	28340	32743	
1803	0	32951	32535	32360	32769	34920	28325	32751	
1804	0	33283	32775	32601	32714	34918	28327	32749	
1805	0	32658	32735	32730	32741	34936	28326	32745	
1806	0	32722	32792	32773	32815	34936	28342	32725	
1807	0	32542	32678	32523	32873	34918	28323	32743	
1808	0	32682	32646	32589	32743	34913	28329	32758	
1809	0	32838	32721	32647	32804	34951	28325	32743	
1810	0	32553	32739	32583	32745	34951	28311	32745	
1811	0	32748	32743	32722	32751	34935	28326	32743	
1812	0	32864	32561	32567	32663	34951	28301	32744	
1813	0	32802	32726	32564	32818	34943	28330	32736	
1814	0	32692	32630	32633	32671	34934	28308	32743	
1815	0	33112	32707	32830	32726	34931	28317	32757	
1816	0	32576	32595	32630	32755	34921	28326	32741	
1817	0	32600	32732	32663	32795	34926	28320	32733	
1818	0	32692	32617	32685	32751	34928	28318	32751	
1819	0	32391	32638	32327	32668	34943	28317	32754	
1820	0	33090	32711	32748	32578	34947	28331	32739	
1821	0	32616	32754	32687	32540	34938	28315	32745	
1822	0	32807	32712	32576	32808	34944	28328	32743	
1823	0	32650	32775	32680	32711	34937	28316	32743	
1824	0	33012	33129	32514	32769	34923	28337	32736	
1825	0	32916	32647	32470	32699	34957	28334	32725	
1826	0	33175	32753	32657	32590	34941	28328	32742	
1827	0	32664	32727	32749	32794	34935	28340	32742	
1828	0	32544	32555	32596	32643	34923	28338	32738	
1829	0	32798	32769	32405	32743	34925	28330	32731	
1830	0	32862	32711	32498	32775	34918	28336	32751	
1831	0	32796	32577	32795	32711	34931	28342	32758	
1832	0	32828	32455	32830	32774	34951	28326	32744	
1833	0	32837	32775	32791	32790	34960	28339	32746	
1834	0	32737	32646	32628	32592	34951	28367	32743	
1835	0	32654	32751	32699	32837	34951	28353	32758	
1836	0	32976	32742	32684	32762	34959	28349	32750	
1837	0	32888	32716	32289	32760	34934	28338	32731	
1838	0	32728	32705	32631	32715	34983	28358	32752	
1839	0	32601	32681	32510	32766	34973	28355	32745	
1840	0	33056	32566	32573	32628	34976	28372	32737	
1841	0	32607	32686	32739	32699	35001	28372	32726	
1842	0	32594	32754	32585	32711	34965	28346	32739	
1843	0	32812	32632	32404	32678	34983	28339	32743	
1844	0	33053	32751	32743	32566	34971	28340	32747	
1845	0	32937	32535	32538	32727	34951	28363	32736	
1846	0	32770	32699	32686	32864	34969	28345	32740	
1847	0	32775	32688	32492	32593	34989	28343	32727	
1848	0	33115	32679	32734	32770	34949	28327	32744	
1849	0	32738	32704	32712	32615	34977	28346	32733	
1850	0	32890	32763	32978	32835	34928	28345	32729	
1851	0	32694	32724	32474	32846	34985	28336	32736	
1852	0	32861	32694	32339	32759	34963	28328	32738	
1853	0	32775	32775	32543	32786	34936	28327	32749	
1854	0	32829	32786	32639	32632	34931	28328	32745	
1855	0	32950	32597	32732	32670	34949	28343	32738	
1856	0	33095	32731	32647	32507	34931	28328	32750	
1857	0	32697	32671	32775	32707	34912	28329	32743	
1858	0	32505	32834	32833	33005	34963	28337	32718	
1859	0	32662	32611	32703	32741	34951	28341	32728	
1860	0	33081	32695	32704	32658	34944	28347	32729	
1861	0	32792	32662	32504	32756	34962	28328	32731	
1862	0	32820	32775	32454	32683	34959	28326	32752	
1863	0	32877	32839	32674	32627	34932	28333	32742	
1864	0	32589	32766	32829	32796	34980	28342	32711	
1865	0	32603	32773	32687	32696	34980	28348	32723	
1866	0	32985	32583	33040	32703	34959	28359	32735	
1867	0	32210	32678	32687	32750	34965	28343	32737	
1868	0	32758	32775	32659	32775	34933	28324	32741	
1869	0	32761	32763	32615	32719	34930	28353	32742	
1870	0	32721	32623	32516	32820	34951	28335	32738	
1871	0	32560	32509	32726	32819	34957	28330	32757	
1872	0	32811	32879	32805	32756	34981	28338	32763	
1873	0	32843	32643	32775	32742	34951	28344	32737	
1874	0	32792	32707	32630	32893	34941	28343	32743	
1875	0	32466	32660	32550	32775	34965	28347	32747	
1876	0	32762	32674	32761	32832	34934	28337	32744	
1877	0	32859	32725	32695	32800	34950	28363	32743	
1878	0	32816	32722	32682	32768	34974	28346	32739	
1879	0	32797	32576	32722	32821	34951	28355	32729	
1880	0	32762	32767	32719	32719	34947	28343	32726	
1881	0	32870	32788	32564	32811	34957	28338	32733	
1882	0	32800	32775	32923	32759	34946	28323	32751	
1883	0	32497	32687	32511	32808	34934	28322	32753	
1884	0	32896	32747	32690	32821	34928	28336	32729	
1885	0	33049	32567	32749	32667	34939	28325	32761	
1886	0	32674	32520	32546	32759	34936	28322	32751	
1887	0	32844	32775	32689	32706	34931	28326	32743	
1888	0	32707	32632	32600	32742	34930	28332	32735	
1889	0	32504	32750	32647	32825	34951	28300	32754	
1890	0	32768	32671	32480	32763	34937	28324	32733	
1891	0	32576	32645	32581	32759	34912	28336	32727	
1892	0	32754	32635	32621	32823	34922	28359	32727	
1893	0	32479	32626	32775	32775	34921	28333	32749	
1894	0	32722	32708	32640	32743	34945	28327	32745	
1895	0	32611	32719	32613	32839	34922	28326	32751	
1896	0	33086	32520	32811	32689	34928	28323	32743	
1897	0	32660	32754	32674	32654	34939	28324	32743	
1898	0	32699	32588	32795	32751	34945	28310	32755	
1899	0	32608	32623	32443	32727	34914	28319	32757	
1900	0	32889	32723	32582	32775	34932	28317	32747	
1901	0	32680	32701	32667	32745	34941	28335	32751	
1902	0	32512	32615	32595	32754	34926	28326	32754	
1903	0	32621	32720	32646	32721	34919	28322	32742	
1904	0	32786	32750	32581	32718	34939	28315	32754	
1905	0	32850	32767	32498	32818	34921	28321	32753	
1906	0	32958	32758	32677	32615	34918	28331	32735	
1907	0	33146	32637	32516	32746	34937	28311	32738	
1908	0	32726	32658	32570	32751	34948	28319	32754	
1909	0	33002	32682	32604	32766	34909	28323	32753	
1910	0	32640	32743	32568	32680	34923	28327	32733	
1911	0	32827	32699	32623	32734	34932	28332	32754	
1912	0	32621	32610	32623	32811	34900	28324	32762	
1913	0	32656	32807	32644	32645	34922	28323	32743	
1914	0	32747	32635	32637	32647	34899	28315	32746	
1915	0	32640	32804	32787	32734	34911	28311	32754	
1916	0	32955	32789	32711	32790	34906	28313	32758	
1917	0	32554	32730	32634	32775	34914	28315	32742	
1918	0	32720	32870	32749	32863	34917	28321	32752	
1919	0	32749	32595	32592	32749	34915	28310	32752	
1920	0	32749	32574	32511	32830	34887	28311	32749	
1921	0	32594	32945	32604	32662	34895	28295	32759	
1922	0	32676	32504	32594	32793	34898	28310	32745	
1923	0	32584	32738	32578	32775	34909	28295	32711	
1924	0	32554	32755	32636	32775	34895	28311	32734	
1925	0	32710	32582	32807	32789	34898	28292	32736	
1926	0	32804	32790	32615	32775	34905	28302	32729	
1927	0	32912	32647	32703	32842	34875	28300	32731	
1928	0	32808	32567	32667	32681	34893	28311	32735	
1929	0	33012	32626	32960	32764	34925	28278	32751	
1930	0	32824	32702	32570	32696	34880	28307	32739	
1931	0	32775	32722	32594	32766	34887	28303	32739	
1932	0	32878	32539	32637	32710	34869	28287	32727	
1933	0	32995	32647	32420	32807	34883	28303	32732	
1934	0	32713	32522	32454	32707	34909	28304	32734	
1935	0	32745	32939	32711	32850	34879	28291	32731	
1936	0	32833	32688	32677	32767	34887	28295	32722	
1937	0	32648	32824	32808	32657	34904	28303	32733	
1938	0	32676	32642	32591	32677	34875	28294	32731	
1939	0	32804	32583	32647	32703	34891	28294	32734	
1940	0	32624	32842	32748	32945	34887	28322	32729	
1941	0	32212	32822	32836	33019	34877	28314	32713	
1942	0	32875	32615	32417	32711	34887	28323	32711	
1943	0	33042	32627	32788	32738	34907	28307	32724	
1944	0	32965	32534	32711	32827	34896	28314	32738	
1945	0	32872	32564	32458	32666	34887	28327	32752	
1946	0	32603	32543	32424	32858	34902	28301	32714	
1947	0	32762	32720	32644	32583	34896	28303	32686	
1948	0	32720	33047	32364	32704	34885	28326	32695	
1949	0	32515	32694	32745	32731	34887	28318	32698	
1950	0	32902	32791	32543	32714	34871	28310	32715	
1951	0	32576	32757	32641	32710	34877	28300	32713	
1952	0	33046	32727	32514	32745	34875	28292	32731	
1953	0	32713	32762	32739	32762	34881	28290	32710	
1954	0	32499	32711	32914	32665	34904	28295	32711	
1955	0	32838	32644	32642	32628	34909	28308	32704	
1956	0	32616	32755	32686	32759	34881	28295	32724	
1957	0	32660	32692	32470	32754	34872	28311	32711	
1958	0	32547	32748	32654	32717	34907	28306	32711	
1959	0	32699	32569	32601	32795	34902	28302	32721	
1960	0	33034	32736	32684	32799	34919	28322	32710	
1961	0	32903	32594	32583	32773	34887	28307	32708	
1962	0	32868	32646	32711	32825	34882	28307	32703	
1963	0	32726	32647	32562	32933	34895	28308	32711	
1964	0	32802	32656	32677	32631	34887	28307	32706	
1965	0	32786	32658	32795	32830	34886	28308	32711	
1966	0	32626	32679	32598	32604	34877	28295	32711	
1967	0	32618	32751	32653	32748	34918	28292	32711	
1968	0	32752	32566	32688	32742	34892	28292	32711	
1969	0	33005	32707	32745	32647	34865	28295	32706	
1970	0	32980	32755	32634	32743	34866	28295	32710	
1971	0	33042	32812	32543	32866	34878	28306	32704	
1972	0	33042	32735	32527	32690	34883	28291	32710	
1973	0	32555	32756	32592	32711	34871	28287	32719	
1974	0	32791	32732	32553	32815	34887	28326	32698	
1975	0	32696	32713	32707	32839	34849	28310	32714	
1976	0	32823	32558	32635	32749	34875	28304	32711	
1977	0	32556	32671	32541	32692	34871	28295	32722	
1978	0	33148	32794	32473	32789	34880	28282	32726	
1979	0	32682	32775	32630	32659	34866	28288	32722	
1980	0	32740	32695	32617	32686	34860	28317	32694	
1981	0	33055	32716	32739	32814	34883	28293	32711	
1982	0	32632	32484	32623	32731	34879	28295	32696	
1983	0	32614	32692	32802	32715	34866	28289	32710	
1984	0	32909	32743	32562	32565	34886	28309	32703	
1985	0	32713	32647	32553	32846	34874	28286	32717	
1986	0	33019	32647	32588	32769	34882	28313	32698	
1987	0	32872	32548	32567	32627	34872	28314	32720	
1988	0	32868	32681	32377	32802	34860	28283	32716	
1989	0	32912	32959	32677	32742	34887	28292	32711	
1990	0	32906	32736	32477	32753	34902	28295	32718	
1991	0	32797	32627	32589	32814	34886	28295	32730	
1992	0	32850	32736	32583	32507	34865	28295	32717	
1993	0	33072	32663	32564	32775	34894	28306	32711	
1994	0	32771	32639	32528	32787	34889	28300	32710	
1995	0	32786	32711	32661	32481	34887	28283	32721	
1996	0	32754	32673	32517	32806	34873	28288	32731	
1997	0	32916	32763	32579	32638	34861	28316	32727	
1998	0	32793	32670	32755	32711	34885	28312	32711	
1999	0	32866	32601	32409	32699	34865	28300	32727	
2000	0	32818	32593	32327	32604	34857	28295	32717	
2001	0	32720	32675	32614	32481	34882	28295	32727	
2002	0	32711	32647	32671	32615	34866	28295	32726	
2003	0	32775	32749	32451	32583	34855	28293	32715	
2004	0	33250	32581	32671	32715	34871	28283	32737	
2005	0	32925	32937	32491	32802	34890	28296	32732	
2006	0	32600	32640	32717	32792	34887	28300	32739	
2007	0	32858	32839	32500	32679	34863	28325	32722	
2008	0	32621	32696	32518	32848	34879	28303	32727	
2009	0	32674	32775	32579	32760	34874	28313	32723	
2010	0	32520	32738	32846	32767	34896	28311	32726	
2011	0	32583	32518	32775	32608	34866	28303	32737	
2012	0	32893	32747	32460	32857	34859	28295	32731	
2013	0	32645	32914	32820	32806	34858	28302	32725	
2014	0	32968	32743	32626	32684	34899	28308	32735	
2015	0	32812	32752	32687	32688	34898	28297	32736	
2016	0	32666	32707	32711	32772	34906	28315	32730	
2017	0	33012	32711	32691	32738	34863	28286	32729	
2018	0	32524	32754	32560	32795	34901	28280	32738	
2019	0	32991	32585	32687	32748	34887	28287	32742	
2020	0	32560	32647	32771	32633	34885	28303	32731	
2021	0	33388	32647	32682	32545	34867	28303	32727	
2022	0	32677	32610	32557	32762	34873	28314	32722	
2023	0	32446	32652	32691	32963	34855	28310	32722	
2024	0	32474	32763	32758	32896	34839	28293	32747	
2025	0	33124	32625	32631	32766	34843	28292	32743	
2026	0	32824	32647	32617	32710	34887	28295	32744	
2027	0	32594	32758	32472	32734	34867	28289	32763	
2028	0	32732	33006	32553	32806	34872	28293	32754	
2029	0	32894	32703	32474	32833	34870	28294	32721	
2030	0	32762	32769	32642	32722	34848	28310	32716	
2031	0	32886	32766	32827	32775	34874	28295	32752	
2032	0	32662	32646	32647	32791	34902	28306	32755	
2033	0	33008	32767	32515	32775	34866	28295	32755	
2034	0	32996	32709	32902	32760	34899	28303	32751	
2035	0	32634	32543	32755	32802	34867	28288	32752	
2036	0	32700	32579	32671	32711	34895	28294	32743	
2037	0	32771	32725	32634	32837	34887	28289	32747	
2038	0	32699	32752	32643	32759	34887	28291	32762	
2039	0	33041	32604	32839	32804	34880	28295	32747	
2040	0	32964	32645	32592	32788	34895	28310	32751	
2041	0	32756	32767	32362	32706	34874	28312	32734	
2042	0	32546	32619	32530	32567	34904	28301	32740	
2043	0	32508	32562	32557	32797	34898	28319	32726	
2044	0	32600	32617	32551	32817	34887	28310	32744	
2045	0	32831	32576	32552	32751	34884	28295	32748	
2046	0	32886	32725	32372	32736	34871	28306	32755	
2047	0	32664	32738	32660	32816	34914	28315	32741	
2048	0	32688	32767	32711	32731	34851	28314	32727	
2049	0	32760	32658	32506	32775	34881	28303	32732	
2050	0	32971	32687	32676	32792	34873	28289	32735	
2051	0	32989	32731	32518	32797	34887	28292	32732	
2052	0	32992	32574	32678	32687	34874	28310	32748	
2053	0	32927	32671	32676	32715	34906	28287	32734	
2054	0	32825	32658	32685	32775	34874	28294	32739	
2055	0	32676	32656	32699	32775	34872	28278	32733	
2056	0	32842	32711	32720	32756	34893	28295	32716	
2057	0	32956	32617	32507	32807	34832	28306	32714	
2058	0	32686	32757	32418	32646	34887	28278	32759	
2059	0	32822	32521	32500	32813	34860	28286	32755	
2060	0	32790	32663	32546	32653	34872	28287	32747	
2061	0	32660	32811	32642	32799	34870	28278	32740	
2062	0	32827	32678	32727	32583	34895	28291	32738	
2063	0	32775	32595	32621	32698	34854	28298	32731	
2064	0	33176	32463	32543	32809	34859	28292	32727	
2065	0	33240	32672	32673	32856	34846	28279	32718	
2066	0	32824	32685	32549	32749	34877	28317	32722	
2067	0	32738	32688	32766	32775	34866	28295	32726	
2068	0	32682	32763	32668	32786	34887	28304	32711	
2069	0	32400	32694	32755	32752	34850	28306	32734	
2070	0	32664	32626	32642	32775	34881	28302	32724	
2071	0	32902	32549	32457	32647	34887	28319	32722	
2072	0	32566	32751	32684	32864	34894	28313	32718	
2073	0	32950	32749	32399	32788	34911	28310	32720	
2074	0	32597	32532	32506	32678	34905	28313	32722	
2075	0	32690	32683	32511	32696	34903	28307	32742	
2076	0	32752	32769	32429	32531	34896	28295	32726	
2077	0	32734	32626	32688	32646	34906	28295	32742	
2078	0	32768	32726	32586	32740	34883	28327	32715	
2079	0	32751	32647	32704	32815	34887	28313	32723	
2080	0	32560	32775	32590	32637	34895	28315	32727	
2081	0	32775	32623	32503	32621	34899	28317	32708	
2082	0	32877	32673	32559	32816	34932	28320	32720	
2083	0	32626	32671	32539	32590	34898	28310	32726	
2084	0	32552	32741	32604	32683	34925	28334	32711	
2085	0	32354	32723	32646	32716	34912	28323	32723	
2086	0	32656	32709	32645	32685	34923	28317	32729	
2087	0	32804	32707	32538	32795	34899	28315	32711	
2088	0	32768	32759	32682	32806	34928	28321	32711	
2089	0	32731	32583	32784	32794	34916	28321	32711	
2090	0	32876	32663	32557	32822	34888	28307	32712	
2091	0	32848	32647	32493	32688	34900	28295	32727	
2092	0	32858	32612	32583	32772	34907	28312	32716	
2093	0	32775	32617	32690	32804	34943	28320	32709	
2094	0	32792	32518	32399	32683	34917	28304	32725	
2095	0	32992	32731	32576	32855	34874	28325	32711	
2096	0	32816	32726	32695	32658	34912	28294	32704	
2097	0	32760	32680	32623	32726	34887	28295	32723	
2098	0	32700	32652	32688	32765	34869	28304	32711	
2099	0	32960	32762	32477	32722	34871	28311	32710	
2100	0	32712	32706	32690	32769	34890	28295	32724	
2101	0	32709	32571	32583	32775	34894	28313	32708	
2102	0	32679	32618	32398	32690	34871	28295	32715	
2103	0	33026	32541	32707	32719	34865	28295	32707	
2104	0	32987	32499	32404	32766	34919	28325	32707	
2105	0	32623	32747	32698	32820	34887	28306	32703	
2106	0	32688	32878	32838	33022	34933	28310	32706	
2107	0	32900	32674	32631	32647	34908	28319	32681	
2108	0	33014	32742	32402	32605	34855	28310	32702	
2109	0	32607	32755	32591	32658	34896	28292	32717	
2110	0	33168	32531	32711	32666	34903	28312	32721	
2111	0	32662	32674	32519	32615	34921	28315	32694	
2112	0	33048	32549	32756	32743	34903	28295	32698	
2113	0	32724	32727	32522	32705	34928	28315	32689	
2114	0	32750	32593	32604	32775	34898	28310	32704	
2115	0	32918	32775	32583	32538	34883	28295	32717	
2116	0	32978	32759	32571	32784	34913	28295	32698	
2117	0	32518	32672	32600	32743	34875	28302	32703	
2118	0	32922	32743	32472	32870	34902	28295	32702	
2119	0	32784	32729	32817	32793	34899	28314	32699	
2120	0	32799	32752	32747	32773	34905	28299	32707	
2121	0	32754	32666	32710	32671	34898	28304	32703	
2122	0	32496	32677	32835	32775	34914	28320	32691	
2123	0	32926	32559	32751	32740	34905	28320	32707	
2124	0	32869	32623	32505	32677	34911	28310	32711	
2125	0	32811	32677	32813	32726	34911	28317	32701	
2126	0	32668	32672	32511	32647	34925	28322	32687	
2127	0	32676	32742	32546	32740	34903	28326	32681	
2128	0	32710	32723	32583	32859	34934	28319	32703	
2129	0	32812	32460	32508	32789	34877	28321	32695	
2130	0	32744	32756	32562	32804	34919	28320	32703	
2131	0	32699	32753	32576	32711	34927	28307	32720	
2132	0	32716	32662	32687	32845	34912	28313	32701	
2133	0	32750	32803	32704	32764	34864	28318	32681	
2134	0	32814	32604	32732	32794	34911	28319	32707	
2135	0	32647	32754	32609	32775	34893	28323	32698	
2136	0	33019	32657	32617	32764	34922	28327	32700	
2137	0	32832	32722	32643	32766	34914	28335	32711	
2138	0	32897	32587	32667	32755	34882	28316	32706	
2139	0	32834	32647	32718	32738	34904	28309	32697	
2140	0	32884	32615	32703	32800	34881	28313	32683	
2141	0	32766	32647	32685	32682	34927	28317	32710	
2142	0	32793	32805	32431	32773	34885	28310	32717	
2143	0	32674	32761	32626	32683	34903	28311	32729	
2144	0	33003	32742	32655	32722	34875	28311	32721	
2145	0	32596	32710	32703	32771	34898	28312	32719	
2146	0	32899	32697	32711	32723	34887	28312	32710	
2147	0	32903	32638	32526	32624	34894	28304	32720	
2148	0	32706	32749	32599	32836	34912	28319	32686	
2149	0	32817	32698	32557	32747	34915	28309	32707	
2150	0	32662	32755	32529	32839	34903	28306	32723	
2151	0	32832	32717	32455	32624	34921	28295	32711	
2152	0	32820	32645	32640	32647	34891	28306	32695	
2153	0	32810	32646	32927	32838	34913	28317	32720	
2154	0	32588	32674	32590	32731	34907	28316	32723	
2155	0	32827	32638	32605	32826	34905	28313	32726	
2156	0	32544	32756	32583	32642	34887	28316	32729	
2157	0	32751	32591	32849	32770	34902	28301	32739	
2158	0	32730	32775	32637	32795	34883	28306	32739	
2159	0	32948	32738	32510	32825	34868	28307	32730	
2160	0	32592	32615	32700	32759	34902	28311	32748	
2161	0	33048	32655	32592	32736	34894	28295	32731	
2162	0	32745	32728	32608	32751	34911	28304	32724	
2163	0	32819	32747	32782	32698	34899	28302	32717	
2164	0	32686	32723	32550	32671	34917	28309	32732	
2165	0	32627	32653	32772	32787	34921	28316	32723	
2166	0	32754	32723	32875	32822	34927	28317	32709	
2167	0	32816	32691	32549	32766	34927	28314	32729	
2168	0	32817	32794	32600	32822	34913	28295	32711	
2169	0	33085	32617	32679	32819	34854	28319	32711	
2170	0	32990	32720	32820	32726	34895	28330	32711	
2171	0	32603	32675	32763	32725	34905	28309	32739	
2172	0	32830	32736	32535	32773	34926	28307	32727	
2173	0	32571	32732	32852	32843	34916	28307	32735	
2174	0	32512	32681	32675	32682	34880	28322	32737	
2175	0	32621	32749	32615	32658	34908	28319	32728	
2176	0	32884	32574	32567	32792	34900	28335	32717	
2177	0	32633	32709	32558	32624	34900	28307	32738	
2178	0	32683	32767	32707	32727	34919	28315	32738	
2179	0	33062	32736	32599	32758	34886	28318	32739	
2180	0	32748	32560	32753	32770	34880	28311	32743	
2181	0	32787	32543	32633	32839	34883	28312	32726	
2182	0	32512	32765	32416	32719	34930	28295	32726	
2183	0	33124	32696	32888	32824	34905	28310	32717	
2184	0	32521	32804	32602	32771	34912	28313	32739	
2185	0	32523	32679	32532	32675	34896	28313	32742	
2186	0	32658	32578	32742	32728	34885	28313	32726	
2187	0	32643	32555	32639	32674	34907	28311	32732	
2188	0	33072	32742	32384	32647	34920	28318	32739	
2189	0	32788	32547	32471	32647	34921	28319	32722	
2190	0	32538	32802	32702	33034	34877	28316	32723	
2191	0	32675	32775	32555	32997	34910	28318	32727	
2192	0	32614	32590	32491	32622	34931	28312	32715	
2193	0	32775	32520	32886	32711	34915	28304	32711	
2194	0	32588	32817	32575	32592	34893	28305	32732	
2195	0	32666	32621	32775	32796	34878	28294	32742	
2196	0	32722	32762	32706	32796	34900	28295	32715	
2197	0	32883	32775	32707	32643	34923	28308	32708	
2198	0	32612	32594	32591	32619	34898	28324	32711	
2199	0	33004	32632	32539	32810	34887	28310	32700	
2200	0	32585	32615	32583	32755	34875	28289	32742	
2201	0	32896	32710	32620	32749	34858	28295	32723	
2202	0	32716	32654	32794	32711	34871	28301	32733	
2203	0	32936	32734	32570	32605	34906	28294	32743	
2204	0	32870	32750	32678	32768	34932	28295	32745	
2205	0	32582	32750	32727	32775	34898	28290	32733	
2206	0	32766	32658	32599	32807	34861	28295	32742	
2207	0	32647	32544	32690	32805	34887	28294	32730	
2208	0	33046	32643	32567	32593	34891	28295	32737	
2209	0	32752	32677	32772	32831	34893	28303	32736	
2210	0	32839	32590	32642	32811	34872	28310	32715	
2211	0	32711	32751	32547	32678	34880	28308	32706	
2212	0	32734	32671	32939	32798	34887	28309	32711	
2213	0	32760	32771	32813	32773	34887	28295	32728	
2214	0	32818	32695	32490	32754	34883	28303	32713	
2215	0	32532	32775	32467	32892	34892	28312	32743	
2216	0	32920	32630	32655	32744	34902	28309	32695	
2217	0	32724	32579	32745	32698	34877	28310	32711	
2218	0	32582	32791	32679	32744	34902	28303	32711	
2219	0	32833	32719	32631	32819	34896	28306	32714	
2220	0	32694	32806	32738	32767	34906	28304	32715	
2221	0	32745	32682	32523	32728	34885	28324	32718	
2222	0	32870	32701	32589	32704	34891	28313	32734	
2223	0	32816	32773	32703	32775	34875	28320	32739	
2224	0	32827	32767	32678	32742	34881	28294	32725	
2225	0	32864	32685	32402	32827	34875	28300	32727	
2226	0	33029	32754	32704	32681	34869	28321	32728	
2227	0	32758	32702	32567	32747	34906	28310	32743	
2228	0	32848	32647	32909	32640	34887	28307	32733	
2229	0	32662	32763	32653	32795	34895	28315	32734	
2230	0	32773	32642	32679	32806	34844	28311	32723	
2231	0	33042	32767	32694	32775	34904	28313	32731	
2232	0	32809	32552	32646	32704	34863	28304	32739	
2233	0	32927	32825	32614	32802	34893	28304	32738	
2234	0	32582	32690	32560	32803	34885	28312	32730	
2235	0	32832	32706	32671	32721	34887	28309	32730	
2236	0	32672	32694	32732	32806	34893	28300	32720	
2237	0	32730	32731	32454	32815	34901	28295	32723	
2238	0	32762	32744	32603	32698	34871	28321	32711	
2239	0	32745	32742	32455	32769	34898	28334	32722	
2240	0	32700	32477	32855	32743	34912	28313	32718	
2241	0	32630	32671	32964	32718	34887	28318	32726	
2242	0	32837	32664	32407	32734	34906	28310	32732	
2243	0	32648	32759	32541	32659	34904	28306	32735	
2244	0	32808	32775	32551	32756	34895	28340	32722	
2245	0	32862	32805	32486	32748	34915	28316	32739	
2246	0	32684	32719	32667	32739	34911	28315	32737	
2247	0	32720	32625	32590	32574	34900	28320	32726	
2248	0	33034	32785	32551	32815	34915	28299	32754	
2249	0	32950	32673	32711	32647	34886	28322	32738	
2250	0	32903	32614	32802	32679	34894	28316	32742	
2251	0	32738	32736	32551	32775	34914	28313	32739	
2252	0	32830	32786	32699	32610	34908	28323	32727	
2253	0	32696	32647	32764	32742	34911	28300	32743	
2254	0	32643	32702	32850	32647	34907	28326	32729	
2255	0	32706	32583	32649	32775	34899	28309	32736	
2256	0	32694	32769	32840	32793	34909	28326	32733	
2257	0	32704	32711	32480	32707	34871	28303	32742	
2258	0	32660	32611	32461	32807	34895	28332	32727	
2259	0	32632	32595	32558	32667	34896	28324	32727	
2260	0	32684	32751	32578	32762	34887	28317	32735	
2261	0	32746	32749	32966	32819	34889	28309	32730	
2262	0	32753	32799	32688	32743	34886	28304	32730	
2263	0	32866	32642	32500	32626	34886	28310	32724	
2264	0	32884	32566	32634	32846	34909	28327	32711	
2265	0	33044	32583	32571	32743	34879	28310	32726	
2266	0	33104	32793	32538	32804	34902	28311	32736	
2267	0	32896	32743	32792	32775	34909	28314	32725	
2268	0	32652	32771	32477	32617	34899	28309	32725	
2269	0	32332	32635	32569	32763	34870	28306	32736	
2270	0	32652	32563	32764	32762	34882	28319	32731	
2271	0	32506	32658	32543	32678	34887	28295	32733	
2272	0	32974	32736	32741	32694	34898	28310	32723	
2273	0	32484	32655	32684	32751	34898	28301	32743	
2274	0	33094	32551	32583	32787	34887	28331	32727	
2275	0	32683	32683	32505	32664	34914	28319	32735	
2276	0	32797	32671	32672	32609	34900	28310	32744	
2277	0	32816	32802	32560	32793	34905	28303	32731	
2278	0	32384	32629	32733	32955	34887	28311	32738	
2279	0	32692	32644	32675	32894	34922	28319	32720	
2280	0	32732	32647	32530	32487	34894	28311	32738	
2281	0	32576	32623	32749	32677	34885	28304	32747	
2282	0	32848	32645	32614	32775	34895	28312	32762	
2283	0	32971	32802	32752	32795	34916	28302	32739	
2284	0	32599	32823	32754	32681	34906	28307	32711	
2285	0	32570	32627	32451	32715	34883	28321	32732	
2286	0	32694	32739	32470	32837	34881	28323	32722	
2287	0	32740	32839	32579	32838	34871	28295	32734	
2288	0	33140	32699	32687	32643	34858	28290	32736	
2289	0	33042	32738	32543	32807	34910	28295	32756	
2290	0	32552	32703	32719	32620	34898	28300	32755	
2291	0	32775	32749	32752	32708	34900	28318	32745	
2292	0	32808	32677	32466	32834	34895	28308	32739	
2293	0	32826	32754	32771	32767	34880	28325	32737	
2294	0	32966	32775	32774	32775	34886	28303	32748	
2295	0	32498	32631	32562	32709	34919	28328	32736	
2296	0	32652	32705	32745	32834	34911	28314	32745	
2297	0	32752	32763	32489	32800	34902	28301	32735	
2298	0	32792	32688	32676	32763	34915	28326	32707	
2299	0	32839	32721	32374	32739	34909	28321	32734	
2300	0	32770	32843	32560	32761	34903	28317	32734	
2301	0	32580	32558	32535	32871	34931	28321	32711	
2302	0	32490	32792	32758	32821	34915	28327	32723	
2303	0	32770	32702	32793	32804	34912	28319	32738	
2304	0	33024	32524	32643	32685	34930	28323	32730	
2305	0	32672	32765	32599	32761	34919	28329	32724	
2306	0	32711	32612	32623	32799	34907	28315	32716	
2307	0	32798	32743	32465	32770	34915	28310	32738	
2308	0	32720	32647	32510	32790	34914	28327	32729	
2309	0	32818	32711	32539	32816	34875	28319	32721	
2310	0	32869	32754	32710	32855	34903	28333	32723	
2311	0	32814	32739	32478	32582	34907	28293	32725	
2312	0	32828	32578	32787	32812	34906	28307	32744	
2313	0	32720	32646	32455	32787	34909	28331	32726	
2314	0	32739	32796	32642	32771	34896	28319	32760	
2315	0	32862	32535	32542	32703	34887	28304	32754	
2316	0	32903	32517	32754	32574	34911	28295	32752	
2317	0	32957	32694	32539	32931	34907	28323	32727	
2318	0	32687	32749	32728	32738	34907	28311	32739	
2319	0	33034	32876	32811	32851	34918	28300	32739	
2320	0	32898	32731	32651	32570	34919	28315	32737	
2321	0	32654	32807	32824	32644	34923	28316	32736	
2322	0	32993	32672	32640	32768	34917	28321	32727	
2323	0	32596	32571	32535	32855	34939	28320	32727	
2324	0	32647	32566	32590	32782	34907	28311	32722	
2325	0	32774	32546	32597	32537	34915	28326	32734	
2326	0	33006	32720	32564	32875	34905	28311	32722	
2327	0	32760	32754	32719	32775	34919	28332	32710	
2328	0	32714	32613	32742	32676	34927	28301	32745	
2329	0	32690	32785	32470	32707	34908	28324	32727	
2330	0	32738	32630	32417	32879	34905	28317	32733	
2331	0	33159	33031	32838	32677	34915	28312	32743	
2332	0	32848	32745	32871	32667	34913	28321	32734	
2333	0	32784	32658	32558	32680	34948	28327	32711	
2334	0	32902	32707	32661	32711	34930	28325	32723	
2335	0	32846	32583	32583	32598	34912	28335	32726	
2336	0	32694	32794	32831	32798	34918	28315	32738	
2337	0	32950	32746	32660	32715	34909	28315	32735	
2338	0	32725	32542	32642	32790	34934	28305	32720	
2339	0	32866	32751	32453	32775	34930	28317	32731	
2340	0	32770	32760	32710	32820	34948	28302	32748	
2341	0	32886	32727	32530	32679	34914	28320	32739	
2342	0	32839	32713	32507	32621	34906	28326	32735	
2343	0	32526	32575	32666	32605	34902	28326	32720	
2344	0	32654	32710	32570	32821	34921	28326	32745	
2345	0	32966	32659	32672	32647	34941	28318	32738	
2346	0	33140	32671	32775	32768	34928	28308	32740	
2347	0	32698	32820	32508	32699	34894	28322	32722	
2348	0	32934	32627	32524	32751	34918	28312	32722	
2349	0	32605	32726	32531	32796	34931	28318	32722	
2350	0	32800	32685	32787	32667	34887	28313	32727	
2351	0	32722	32720	32409	32786	34911	28315	32716	
2352	0	32806	32638	32623	32797	34919	28295	32731	
2353	0	32746	32535	32598	32748	34909	28327	32711	
2354	0	32997	32695	32611	32804	34946	28311	32727	
2355	0	32955	32811	32684	32626	34907	28315	32719	
2356	0	32704	32746	32651	32793	34890	28301	32744	
2357	0	32804	32786	32615	32774	34916	28318	32738	
2358	0	32752	32720	32595	32804	34887	28311	32748	
2359	0	32800	32678	32510	32672	34929	28318	32726	
2360	0	32653	32689	32936	32775	34919	28322	32736	
2361	0	32818	32571	32711	32636	34926	28315	32756	
2362	0	32758	32765	32601	32768	34903	28298	32732	
2363	0	32301	32764	32450	32775	34927	28318	32731	
2364	0	32795	32684	32647	32720	34913	28312	32737	
2365	0	32830	32523	32514	32581	34911	28319	32736	
2366	0	32536	32789	32512	32729	34898	28319	32742	
2367	0	32263	32691	32966	33067	34884	28318	32727	
2368	0	32620	32655	32807	32767	34883	28311	32744	
2369	0	33014	32750	32621	32688	34947	28313	32746	
2370	0	32616	32487	32850	32775	34887	28323	32745	
2371	0	32932	32751	32493	32722	34918	28317	32734	
2372	0	32816	32703	32514	32749	34907	28293	32742	
2373	0	32856	32667	32614	32806	34919	28304	32710	
2374	0	32711	32675	32460	32788	34911	28316	32733	
2375	0	32950	32751	32566	32590	34900	28316	32727	
2376	0	33075	32711	32665	32784	34905	28310	32739	
2377	0	32570	32697	32623	32768	34884	28309	32716	
2378	0	32803	32748	32656	32769	34887	28301	32736	
2379	0	32932	32530	32875	32797	34877	28295	32745	
2380	0	32866	32759	32732	32727	34868	28310	32739	
2381	0	32706	32497	32730	32643	34904	28299	32748	
2382	0	32868	32643	32397	32719	34927	28285	32747	
2383	0	32734	32569	32762	32711	34913	28270	32751	
2384	0	32694	32595	32505	32749	34919	28325	32738	
2385	0	32624	32595	32551	32711	34885	28319	32739	
2386	0	32842	32773	32581	32822	34902	28311	32740	
2387	0	32696	32743	32671	32775	34921	28340	32720	
2388	0	32429	32508	32382	32775	34911	28319	32716	
2389	0	32940	32735	32576	32809	34918	28323	32720	
2390	0	32690	32759	32696	32745	34891	28327	32751	
2391	0	32754	32590	32711	32795	34911	28315	32748	
2392	0	32699	32644	32597	32697	34887	28298	32757	
2393	0	32731	32703	32663	32724	34875	28319	32734	
2394	0	33056	32699	32527	32752	34867	28331	32733	
2395	0	32528	32684	32679	32635	34905	28299	32754	
2396	0	32809	32637	32473	32710	34896	28304	32736	
2397	0	32854	32534	32787	32775	34874	28314	32736	
2398	0	32612	32654	32605	32751	34906	28301	32727	
2399	0	32741	32717	32640	32589	34906	28320	32729	
2400	0	32742	32562	32757	32647	34913	28303	32733	
2401	0	32728	32743	32583	32623	34879	28306	32720	
2402	0	32720	32745	32672	32715	34910	28338	32711	
2403	0	33113	32745	32678	32775	34905	28304	32739	
2404	0	32809	32751	32666	32731	34854	28325	32745	
2405	0	32658	32755	32642	32633	34891	28318	32732	
2406	0	32829	32747	32611	32637	34866	28305	32735	
2407	0	32718	32660	32722	32727	34898	28310	32720	
2408	0	32587	32598	32728	32955	34894	28319	32715	
