# OpenSignals Text File Format
# {"00:07:80:3B:46:38": {"sensor": ["EMG", "EMG", "EMG", "EMG", "XYZ", "XYZ", "XYZ"], "device name": "00:07:80:3B:46:38", "column": ["nSeq", "DI", "FL", "BL", "FR", "BR", "Z", "Y", "X"], "sync interval": 2, "time": "13:57:16.652", "comments": "", "device connection": "BTH00:07:80:3B:46:38", "channels": [1, 2, 3, 4, 6, 7, 8], "date": "2016-6-24", "mode": 0, "digital IO": [0, 1], "firmware version": 772, "device": "biosignalsplux", "position": 0, "sampling rate": 100, "label": ["FL", "BL", "FR", "BR", "Z", "Y", "X"], "resolution": [16, 16, 16, 16, 16, 16, 16], "special": [{}, {}, {}, {}, {}, {}, {}]}}
# EndOfHeader
0	0	32786	32765	32539	32771	37575	33408	33656	
1	0	32763	32756	32742	32635	37532	33415	33662	
2	0	32738	32415	32662	32769	37559	33410	33671	
3	0	32818	34102	32718	32760	37525	33407	33671	
4	0	32775	32813	32773	32611	37539	33383	33698	
5	0	32716	33681	32724	32539	37548	33399	33663	
6	0	32815	30575	32623	32641	37537	33394	33661	
7	0	32773	33758	32740	32478	37528	33378	33687	
8	0	32741	32391	32672	32571	37549	33394	33671	
9	0	32775	32391	32605	33119	37549	33396	33693	
10	0	32738	32678	32775	32709	37552	33413	33712	
11	0	32802	32413	32632	31526	37541	33396	33693	
12	0	32710	35061	32738	33625	37567	33415	33669	
13	0	32789	33543	32709	35126	37555	33409	33659	
14	0	32761	33010	32743	32529	37539	33426	33675	
15	0	32848	33544	32736	32461	37563	33415	33671	
16	0	32796	32215	32548	32633	37577	33419	33653	
17	0	32775	32646	32710	32539	37579	33399	33707	
18	0	32734	32609	32626	32443	37590	33408	33701	
19	0	32794	33266	32609	32452	37553	33425	33711	
20	0	32743	32518	32482	33974	37567	33426	33697	
21	0	32760	32544	32671	32808	37552	33426	33678	
22	0	32727	32412	32538	33488	37554	33431	33671	
23	0	32751	32708	32674	32263	37567	33440	33671	
24	0	32730	32441	32615	32184	37568	33415	33674	
25	0	32756	32407	32716	32237	37559	33431	33678	
26	0	32690	33531	32707	30889	37543	33415	33679	
27	0	32748	33374	32576	35271	37577	33456	33671	
28	0	32752	32505	32544	32731	37524	33456	33671	
29	0	32740	33186	32743	34909	37543	33466	33652	
30	0	32743	32358	32731	32593	37549	33467	33654	
31	0	32710	32580	32581	32886	37550	33427	33680	
32	0	32742	32731	32554	32595	37581	33462	33663	
33	0	32754	32387	32501	33031	37567	33443	33670	
34	0	32764	32683	32698	32947	37568	33420	33658	
35	0	32782	33449	32775	31128	37511	33415	33671	
36	0	32767	33350	32715	32125	37543	33439	33663	
37	0	32757	32429	32720	32419	37543	33463	33641	
38	0	32687	32752	32704	32794	37543	33424	33639	
39	0	32751	32165	32715	33050	37552	33424	33650	
40	0	32802	33275	32687	32730	37517	33403	33655	
41	0	32800	32199	32720	32147	37549	33418	33648	
42	0	32734	33071	32728	32899	37573	33445	33639	
43	0	32742	32816	32687	31650	37535	33436	33647	
44	0	32782	32332	32687	32397	37591	33458	33665	
45	0	32730	32591	32608	31913	37543	33451	33639	
46	0	32772	32796	32647	33070	37541	33467	33645	
47	0	32825	32727	32487	32716	37556	33451	33645	
48	0	32872	31760	32685	32867	37558	33439	33635	
49	0	32786	31804	32678	32638	37529	33415	33650	
50	0	32522	32676	32803	33022	37537	33447	33651	
51	0	32705	32323	32662	32709	37511	33434	33661	
52	0	32903	33728	32637	33124	37538	33437	33667	
53	0	32850	32263	32564	32295	37494	33453	33645	
54	0	32814	32211	32504	32583	37520	33464	33633	
55	0	32747	32806	32698	33287	37522	33462	33654	
56	0	32822	32646	32632	32360	37532	33464	33632	
57	0	32722	33250	32522	32374	37523	33461	33671	
58	0	32772	32775	32517	32518	37567	33456	33681	
59	0	32733	32825	32687	34107	37549	33466	33671	
60	0	32775	32873	32658	32987	37533	33479	33694	
61	0	32780	31608	32659	32818	37597	33511	33709	
62	0	32775	33063	32581	32503	37554	33503	33702	
63	0	32754	32535	32612	32586	37607	33494	33728	
64	0	32800	32676	32611	33177	37573	33456	33716	
65	0	32773	32326	32752	32039	37585	33445	33697	
66	0	32769	32131	32496	32178	37583	33452	33671	
67	0	32738	32237	32583	32705	37539	33449	33671	
68	0	32730	32724	32670	33287	37547	33447	33654	
69	0	32796	35148	32775	35981	37563	33447	33677	
70	0	32748	32578	32605	31533	37556	33452	33655	
71	0	32739	32659	32571	33095	37561	33455	33654	
72	0	32816	33824	32672	32664	37551	33467	33649	
73	0	32740	33735	32680	34631	37516	33460	33643	
74	0	32752	33630	32746	33159	37506	33466	33659	
75	0	32773	33261	32450	33338	37537	33458	33637	
76	0	32750	32877	32640	32888	37526	33450	33678	
77	0	32795	32638	32722	32624	37531	33478	33669	
78	0	32676	33127	32615	32296	37543	33491	33670	
79	0	32786	32580	32565	33129	37587	33486	33655	
80	0	32742	31590	32562	33715	37573	33479	33650	
81	0	32712	32707	32622	32848	37549	33478	33635	
82	0	32768	32007	32676	34373	37549	33465	33660	
83	0	32792	32250	32658	32562	37553	33454	33645	
84	0	32717	34838	32742	32918	37542	33454	33661	
85	0	32812	32285	32673	34187	37575	33466	33658	
86	0	32784	32647	32628	32631	37549	33464	33671	
87	0	32812	33254	32668	33056	37523	33485	33671	
88	0	32708	33260	32591	31967	37556	33477	33659	
89	0	32775	31458	32591	32860	37542	33479	33654	
90	0	32754	32513	32681	33326	37538	33479	33654	
91	0	32812	32838	32755	32075	37542	33463	33671	
92	0	32732	32159	32501	32659	37503	33458	33682	
93	0	32791	35039	32688	32450	37588	33467	33671	
94	0	32792	32536	32522	33920	37529	33450	33659	
95	0	32764	32706	32662	33307	37537	33463	33668	
96	0	32740	32258	32622	32506	37569	33451	33671	
97	0	32767	32978	32675	32830	37563	33470	33662	
98	0	32843	32937	32539	32865	37568	33479	33639	
99	0	32769	32571	32595	32324	37543	33477	33659	
100	0	32769	32245	32621	32865	37549	33470	33687	
101	0	32771	32977	32751	32796	37551	33475	33668	
102	0	32759	32967	32655	31997	37511	33471	33664	
103	0	32824	33115	32631	32834	37537	33479	33654	
104	0	32746	32837	32572	33591	37523	33479	33660	
105	0	32710	34578	32562	33516	37543	33486	33646	
106	0	32733	32689	32681	32760	37535	33471	33669	
107	0	32748	32583	32679	32566	37545	33475	33656	
108	0	32775	32667	32687	33298	37565	33478	33671	
109	0	32723	33000	32684	32771	37575	33482	33691	
110	0	32773	31852	32534	32736	37558	33511	33671	
111	0	32775	32873	32667	32901	37511	33505	33662	
112	0	32760	32226	32624	32543	37552	33488	33663	
113	0	32806	32583	32519	32719	37533	33486	33640	
114	0	32668	32939	32681	32885	37505	33459	33656	
115	0	32839	32967	32534	32477	37511	33460	33663	
116	0	32799	32684	32563	32775	37522	33479	33654	
117	0	32679	32745	32754	32723	37547	33478	33671	
118	0	32688	32744	32664	32798	37527	33486	33666	
119	0	33058	32833	32609	33078	37547	33506	33654	
120	0	32502	32339	32613	32707	37581	33507	33665	
121	0	32987	32760	32726	32839	37592	33517	33671	
122	0	32754	32756	32816	32619	37613	33516	33687	
123	0	32718	33406	32499	33124	37593	33513	33701	
124	0	32664	37503	32846	32327	37618	33521	33685	
125	0	32547	32420	32655	32732	37675	33534	33677	
126	0	32799	32285	32883	32655	37627	33555	33664	
127	0	33374	33364	32704	32808	37618	33532	33671	
128	0	32763	32691	32691	32660	37559	33538	33681	
129	0	32615	32775	32839	32822	37535	33517	33678	
130	0	33338	32753	32502	32933	37496	33515	33666	
131	0	32992	32523	32519	32694	37485	33488	33641	
132	0	32690	32835	32406	32687	37490	33474	33614	
133	0	32528	32964	32941	32839	37451	33459	33619	
134	0	33060	32000	32411	32211	37440	33498	33615	
135	0	32647	33735	32723	33035	37607	33504	33668	
136	0	32626	32331	32724	32538	37495	33606	33710	
137	0	32822	32644	32508	33191	37537	33671	33734	
138	0	32890	32751	32646	32862	37590	33589	33682	
139	0	32912	32670	32742	32723	37558	33572	33627	
140	0	31872	32838	32170	32749	37590	33534	33651	
141	0	32982	32674	33347	32880	37541	33515	33630	
142	0	32296	32554	32481	32798	37493	33501	33613	
143	0	32441	32708	32279	32717	37488	33511	33616	
144	0	32668	32826	33057	32908	37464	33490	33644	
145	0	32900	33730	32690	32844	37511	33470	33611	
146	0	32745	32945	32679	32679	37459	33473	33631	
147	0	32858	31069	32629	31819	37464	33486	33641	
148	0	32686	32578	32556	32688	37556	33504	33651	
149	0	32976	32461	32789	32439	37467	33569	33665	
150	0	33225	31354	32672	32803	37507	33586	33671	
151	0	32800	32627	32595	32791	37511	33607	33678	
152	0	32652	32439	32678	32791	37511	33627	33714	
153	0	32698	32647	32696	32718	37597	33599	33735	
154	0	32769	32747	32721	32794	37558	33583	33659	
155	0	32381	32492	32128	33266	37525	33629	33629	
156	0	32954	32642	32493	32112	37529	33637	33658	
157	0	32662	32970	32601	31943	37526	33641	33618	
158	0	32932	34678	32607	34311	37555	33614	33641	
159	0	32775	32443	32687	32610	37504	33583	33647	
160	0	32560	32607	32583	32620	37556	33616	33654	
161	0	32402	32638	32615	32775	37508	33607	33690	
162	0	32882	32476	32711	32707	37529	33620	33685	
163	0	32642	31529	32732	32950	37519	33624	33671	
164	0	32760	30969	32520	31933	37509	33615	33641	
165	0	32547	32872	32698	32031	37541	33612	33625	
166	0	32460	34486	32681	33170	37559	33631	33654	
167	0	33022	36494	32761	31286	37597	33607	33690	
168	0	32922	32426	32765	33281	37599	33597	33665	
169	0	32580	32457	32964	32206	37583	33639	33633	
170	0	33148	32559	32092	32758	37511	33641	33638	
171	0	33238	34081	32449	32351	37543	33651	33639	
172	0	32746	31811	33159	33522	37541	33645	33679	
173	0	32978	34616	32629	30691	37520	33641	33654	
174	0	32782	31338	32609	32839	37451	33580	33626	
175	0	32813	33448	32519	33311	37400	33559	33659	
176	0	32814	32500	32686	33201	37419	33544	33683	
177	0	32716	32883	32662	32979	37481	33563	33694	
178	0	32677	33007	32407	32864	37483	33571	33710	
179	0	32636	32515	32411	32105	37493	33595	33695	
180	0	32983	29319	32538	29816	37464	33619	33670	
181	0	32522	32062	32638	31468	37468	33607	33671	
182	0	32610	32235	32522	33850	37549	33639	33690	
183	0	32544	31154	32579	33126	37494	33667	33701	
184	0	32824	31495	32898	33491	37549	33666	33740	
185	0	33300	34738	32630	32375	37543	33682	33754	
186	0	32615	31588	32519	32740	37566	33706	33718	
187	0	32975	32553	32802	32822	37520	33718	33725	
188	0	32634	31276	32565	32877	37520	33751	33743	
189	0	33026	34129	32840	31713	37483	33738	33721	
190	0	32803	31610	32747	32753	37527	33735	33680	
191	0	32775	32208	32434	32298	37524	33701	33633	
192	0	32846	32015	32784	33420	37503	33671	33656	
193	0	32902	32962	32518	32441	37503	33695	33671	
194	0	32628	32295	32533	30760	37536	33680	33688	
195	0	32601	36300	32786	32327	37528	33687	33651	
196	0	32850	31824	32703	32986	37532	33680	33638	
197	0	32818	32359	32615	32548	37495	33699	33651	
198	0	32586	33240	32525	32595	37475	33647	33647	
199	0	32854	34806	32706	34087	37491	33629	33621	
200	0	32738	32385	32451	32932	37506	33625	33625	
201	0	32775	33189	32536	33159	37469	33622	33622	
202	0	32834	31581	32742	32567	37508	33619	33631	
203	0	32714	32304	32519	32791	37502	33632	33645	
204	0	32833	33894	32767	33131	37452	33637	33641	
205	0	32816	35455	32660	32659	37480	33629	33667	
206	0	32730	32228	32595	32848	37447	33644	33667	
207	0	32775	32446	32640	32610	37465	33661	33669	
208	0	32836	32526	32583	32615	37431	33639	33645	
209	0	32724	32809	32709	32839	37443	33625	33637	
210	0	32463	32825	32894	33052	37467	33651	33625	
211	0	32738	32534	32750	32815	37487	33671	33598	
212	0	32930	31820	32530	32499	37451	33667	33597	
213	0	32775	32918	32723	32090	37415	33671	33598	
214	0	32790	32578	32667	32801	37407	33657	33607	
215	0	32740	32489	32647	33078	37374	33654	33579	
216	0	32730	32182	32583	32475	37399	33658	33591	
217	0	32756	32524	32605	32464	37396	33648	33592	
218	0	32768	32479	32633	32572	37400	33654	33631	
219	0	32784	33588	32753	32576	37438	33654	33639	
220	0	32767	32747	32610	32903	37423	33654	33671	
221	0	32702	32679	32590	32848	37467	33652	33717	
222	0	32860	32719	32671	32736	37502	33709	33751	
223	0	32720	32748	32494	32812	37541	33727	33781	
224	0	32722	32754	32566	32575	37562	33727	33787	
225	0	32749	32695	32699	32790	37581	33723	33810	
226	0	32775	32338	32671	32647	37587	33731	33798	
227	0	32686	32864	32687	33063	37581	33758	33757	
228	0	32713	32887	32619	32849	37498	33744	33735	
229	0	32748	32800	32699	32705	37511	33767	33718	
230	0	32749	32667	32751	32731	37506	33725	33709	
231	0	32808	31439	32605	32889	37523	33695	33712	
232	0	32665	32940	32646	32923	37554	33730	33712	
233	0	32926	32941	32775	32689	37567	33774	33743	
234	0	32624	32711	32694	32772	37586	33799	33798	
235	0	32786	32889	32691	32775	37556	33811	33789	
236	0	32768	32546	32681	32762	37532	33830	33760	
237	0	32764	32559	32770	32593	37498	33849	33754	
238	0	32707	32767	32694	32647	37487	33844	33746	
239	0	32676	32673	32482	32698	37490	33829	33725	
240	0	32752	32858	32736	32518	37483	33832	33698	
241	0	32775	32672	32663	32946	37447	33790	33712	
242	0	32775	32612	32749	32671	37463	33764	33755	
243	0	32775	32830	32653	32555	37463	33783	33760	
244	0	32683	32630	32647	32809	37458	33819	33795	
245	0	32741	32950	32714	32728	37511	33821	33796	
246	0	32758	32663	32699	32694	37489	33850	33790	
247	0	32775	32716	32679	32775	37485	33871	33779	
248	0	32763	32846	32767	32504	37525	33835	33781	
249	0	32729	32540	32634	32925	37491	33819	33792	
250	0	32829	32788	32615	32600	37481	33857	33799	
251	0	32748	32772	32703	32908	37451	33855	33783	
252	0	32760	32674	32541	32595	37502	33828	33770	
253	0	32788	32386	32764	32731	37428	33817	33768	
254	0	32802	32129	32652	32867	37491	33813	33783	
255	0	32876	32515	32657	32667	37521	33825	33791	
256	0	32764	32703	32647	32839	37482	33837	33799	
257	0	32760	32347	32470	32662	37474	33842	33766	
258	0	32699	32896	32683	32933	37473	33851	33784	
259	0	32794	32514	32664	32467	37474	33884	33769	
260	0	32770	32837	32681	32851	37463	33863	33757	
261	0	32811	32151	32588	32423	37485	33881	33721	
262	0	32548	32195	32611	32263	37447	33863	33735	
263	0	32820	33245	32609	32762	37485	33856	33728	
264	0	32840	32319	32635	32531	37474	33862	33719	
265	0	32668	31181	32631	33083	37498	33875	33730	
266	0	32846	32539	32791	31864	37468	33867	33741	
267	0	32792	32163	32763	33213	37479	33890	33763	
268	0	32736	32684	32715	32698	37429	33899	33783	
269	0	32630	33248	32503	32593	37447	33910	33763	
270	0	32766	33314	32711	33542	37417	33890	33744	
271	0	32675	31807	32677	33314	37415	33863	33734	
272	0	32747	30511	32359	32327	37407	33882	33734	
273	0	32904	33728	32902	33509	37415	33890	33754	
274	0	32769	31143	32638	32338	37472	33879	33779	
275	0	32796	30943	32518	33037	37494	33889	33777	
276	0	32850	32297	32598	32911	37444	33895	33799	
277	0	32586	33327	32709	32955	37471	33944	33820	
278	0	32822	31272	32527	32832	37474	33966	33823	
279	0	32754	34355	32629	31653	37458	33989	33827	
280	0	32836	34148	32640	33088	37459	33981	33828	
281	0	32775	34417	32700	31097	37440	33999	33799	
282	0	32953	33689	32602	35602	37472	33964	33824	
283	0	32875	32413	32647	32809	37443	33975	33811	
284	0	32732	31746	32643	32500	37443	33962	33783	
285	0	32745	32135	32644	31899	37459	33960	33790	
286	0	32666	33603	32634	33576	37402	33963	33762	
287	0	33028	32731	32524	32793	37335	33954	33762	
288	0	32758	31767	32621	32962	37379	33954	33746	
289	0	32400	32669	32575	32758	37383	33956	33748	
290	0	32600	32775	32600	35912	37354	33959	33723	
291	0	32886	32887	32681	32823	37383	33923	33714	
292	0	32712	31943	32576	32978	37406	33899	33713	
293	0	32798	32593	32708	32446	37410	33941	33708	
294	0	32767	32634	32718	33055	37366	33942	33734	
295	0	32784	32614	32801	32717	37362	33963	33725	
296	0	32793	32756	32553	32917	37367	33985	33725	
297	0	32792	33383	32558	32775	37416	33987	33702	
298	0	32758	32671	32646	32805	37421	33956	33731	
299	0	32805	32552	32605	33167	37409	33959	33707	
300	0	32765	33001	32641	32680	37399	33966	33699	
301	0	32718	32639	32478	32903	37359	33983	33700	
302	0	32744	32698	32670	32614	37366	33999	33727	
303	0	32775	32798	32726	32967	37375	33970	33747	
304	0	32758	32711	32702	32683	37401	33979	33744	
305	0	32714	32711	32476	32745	37415	33991	33762	
306	0	32800	32549	32579	32635	37441	33991	33753	
307	0	32728	32763	32738	32794	37439	34017	33777	
308	0	32771	32647	32566	32690	37419	34066	33778	
309	0	32824	32582	32552	32690	37423	34064	33782	
310	0	32720	32647	32615	32775	37394	34055	33788	
311	0	32912	32679	32566	32721	37402	34046	33776	
312	0	32741	32775	32608	32727	37371	34029	33731	
313	0	32773	32447	32640	32653	37383	34042	33727	
314	0	32742	32711	32687	32834	37382	34041	33745	
315	0	32792	32775	32683	32819	37383	34036	33767	
316	0	32760	32728	32646	32886	37383	34128	33789	
317	0	32865	32775	32610	32745	37410	34147	33830	
318	0	32672	32788	32758	32762	37402	34096	33836	
319	0	32750	32690	32694	32714	37371	34047	33908	
320	0	32880	32600	32485	32746	37323	34049	33997	
321	0	32962	32548	32643	32805	37302	34075	34041	
322	0	32775	32775	32813	32763	37318	34078	33999	
323	0	32786	32748	32594	32664	37249	34131	33972	
324	0	32930	32680	32709	32752	37251	34136	34050	
325	0	32761	32749	32675	32716	37338	34063	34057	
326	0	32532	32683	32634	32754	37430	34114	34066	
327	0	32787	32770	32767	32647	37375	34087	34004	
328	0	32738	32774	32647	32763	37271	34077	33990	
329	0	32828	32691	32589	32775	37383	34115	34059	
330	0	32736	32724	32718	32724	37350	34115	34151	
331	0	32764	32543	32647	32755	37331	34111	34162	
332	0	32818	32758	32652	32707	37282	34119	34119	
333	0	32630	32679	32641	32719	37228	34183	34151	
334	0	32782	32759	32805	32710	37319	34183	34297	
335	0	32798	32643	32775	32645	37237	34171	34306	
336	0	32834	32795	32633	32738	37223	34115	34347	
337	0	32560	32598	32609	32775	37237	34087	34398	
338	0	32649	32583	32538	32706	37191	34081	34407	
339	0	32758	32826	32647	32815	37087	34113	34435	
340	0	33201	32615	32700	32729	37123	34099	34462	
341	0	32680	32762	32715	32644	37191	34079	34486	
342	0	32748	32643	32587	32731	37047	34106	34430	
343	0	32728	32747	32647	32775	36989	34178	34432	
344	0	32748	32647	32624	32839	37063	34237	34593	
345	0	32775	32739	32716	32662	37161	34212	34662	
346	0	32740	32705	32683	32804	37227	34130	34748	
347	0	32754	32691	32535	32618	37173	34063	34738	
348	0	32717	32577	32521	32647	37089	34046	34683	
349	0	32944	32503	32557	32787	37014	34053	34624	
350	0	32710	32793	32552	32765	37097	34088	34578	
351	0	32774	32697	32537	32647	37055	34076	34500	
352	0	32888	32514	32615	32728	37089	34116	34565	
353	0	32715	32599	32583	32654	37132	34179	34663	
354	0	32863	32719	32745	32763	37140	34175	34823	
355	0	32715	32823	32820	32799	37089	34195	34758	
356	0	32926	32802	32551	32833	37087	34110	34765	
357	0	32837	32551	32675	32793	37085	34066	34677	
358	0	32930	32608	32718	32583	36998	34055	34609	
359	0	32746	32720	32690	32700	37028	34013	34663	
360	0	32698	32710	32728	32738	37018	34021	34707	
361	0	32775	32662	32599	32720	36976	34039	34759	
362	0	32804	32809	32643	32775	36994	34119	34798	
363	0	32716	32702	32619	32806	37047	34155	34773	
364	0	32749	32524	32614	32757	37025	34156	34822	
365	0	32792	32578	32647	32739	37037	34100	34821	
366	0	32885	32732	32421	32605	37035	34044	34775	
367	0	32780	32647	32478	32785	36992	34036	34759	
368	0	32546	32694	32794	32941	36989	34099	34790	
369	0	32626	32645	32679	32851	36979	34128	34795	
370	0	32867	32775	32569	32737	36970	34139	34771	
371	0	32816	32677	32605	32632	36999	34091	34775	
372	0	32708	32583	32766	32635	37061	34023	34747	
373	0	32881	32549	32707	32731	37010	34013	34771	
374	0	32667	32639	32731	32698	36999	34071	34880	
375	0	32677	32676	32607	32830	36999	34139	34927	
376	0	32706	32551	32615	32771	37021	34188	34912	
377	0	32838	32736	32728	32715	36978	34165	34918	
378	0	32731	32773	32679	32762	36955	34169	34905	
379	0	32744	32579	32668	32839	36910	34104	34877	
380	0	32752	32727	32691	32770	36964	34049	34850	
381	0	32756	32717	32798	32814	36969	34039	34823	
382	0	32786	32677	32699	32738	37016	34047	34841	
383	0	32762	32503	32702	32717	36982	34058	34848	
384	0	32692	32656	32617	32762	36983	34091	34923	
385	0	32730	32711	32518	32748	36999	34134	34906	
386	0	32708	32539	32691	32644	36987	34104	34907	
387	0	32914	32579	32615	32823	36983	34073	34902	
388	0	32681	32787	32554	32787	36946	34032	34879	
389	0	32694	32807	32662	32754	36955	34055	34868	
390	0	32877	32706	32633	32707	36962	34079	34912	
391	0	32724	32647	32609	32642	36939	34085	34877	
392	0	32724	32595	32699	32822	36930	34099	34899	
393	0	32710	32775	32743	32775	36944	34111	34919	
394	0	32802	32805	32711	32813	36967	34101	34910	
395	0	32745	32645	32555	32816	36948	34110	34896	
396	0	32725	32670	32728	32791	36962	34113	34895	
397	0	32746	32771	32573	32646	36939	34119	34938	
398	0	32716	32724	32640	32735	36962	34151	34927	
399	0	32914	32734	32663	32823	36934	34110	34855	
400	0	32804	32538	32703	32799	36967	34079	34875	
401	0	32806	32583	32518	32710	36968	34075	34914	
402	0	32738	32595	32463	32636	36960	34072	34962	
403	0	32723	32527	32726	32696	36971	34114	34960	
404	0	32775	32760	32633	32818	36935	34104	34951	
405	0	32722	32624	32694	32751	36947	34087	34927	
406	0	32898	32663	32528	32815	36954	34031	34905	
407	0	32827	32738	32672	32750	36962	34042	34917	
408	0	32683	32538	32720	32750	36922	34085	34919	
409	0	32814	32662	32642	32829	36930	34073	34899	
410	0	32736	32695	32620	32771	36951	34064	34919	
411	0	32792	32647	32674	32745	36947	34061	34909	
412	0	32754	32727	32672	32750	36969	34093	34887	
413	0	32758	32742	32647	32816	36928	34099	34902	
414	0	32704	32697	32544	32859	36960	34070	34894	
415	0	32749	32775	32699	32786	36982	34077	34889	
416	0	32774	32717	32589	32808	36974	34079	34887	
417	0	32702	32837	32726	32841	36951	34093	34880	
418	0	32732	32818	32669	32758	36967	34099	34864	
419	0	32784	32583	32493	32746	36978	34093	34887	
420	0	32730	32591	32510	32681	36937	34089	34870	
421	0	32850	32775	32743	32838	36982	34072	34900	
422	0	32723	32749	32743	32553	36951	34085	34882	
423	0	32736	32676	32758	32772	36972	34109	34875	
424	0	32775	32698	32701	32814	36990	34103	34886	
425	0	32781	32631	32564	32633	36958	34096	34862	
426	0	32775	32663	32667	32749	36939	34075	34875	
427	0	32720	32745	32401	32795	36978	34072	34881	
428	0	32669	32463	32615	32618	36971	34071	34905	
429	0	32775	32549	32487	32771	36962	34095	34876	
430	0	32711	32775	32726	32807	36976	34089	34874	
431	0	32811	32677	32562	32797	37015	34075	34845	
432	0	32765	32691	32679	32640	37027	34079	34834	
433	0	32794	32679	32567	32760	36980	34066	34809	
434	0	32791	32773	32689	32717	36958	34081	34866	
435	0	32704	32831	32726	32775	36963	34081	34854	
436	0	32761	32690	32473	32640	36973	34097	34853	
437	0	32698	32799	32714	32762	36965	34089	34855	
438	0	32729	32647	32702	32653	36982	34087	34855	
439	0	32750	32796	32614	32766	36964	34099	34840	
440	0	32744	32751	32563	32671	36982	34095	34855	
441	0	32775	32680	32758	32739	36982	34096	34839	
442	0	32763	32619	32733	32647	36974	34095	34841	
443	0	32774	32729	32560	32793	36980	34101	34852	
444	0	32742	32633	32731	32707	36978	34115	34840	
445	0	32932	32691	32559	32635	36982	34103	34819	
446	0	32717	32624	32688	32743	36999	34104	34823	
447	0	32659	32775	32669	32935	36999	34089	34841	
448	0	32686	32579	32770	32887	36990	34101	34840	
449	0	32820	32790	32615	32694	36982	34084	34850	
450	0	32868	32640	32640	32674	36968	34099	34838	
451	0	32717	32741	32734	32771	36978	34081	34802	
452	0	32762	32789	32568	32775	36994	34083	34806	
453	0	32862	32616	32774	32739	36978	34083	34783	
454	0	32810	32676	32693	32619	36993	34131	34823	
455	0	32720	32651	32640	32639	37014	34135	34850	
456	0	32786	32687	32599	32803	37014	34122	34823	
457	0	32742	32614	32551	32771	36983	34106	34820	
458	0	32782	32605	32768	32756	36989	34114	34823	
459	0	32780	32662	32718	32714	36998	34106	34857	
460	0	32739	32641	32612	32667	36989	34103	34797	
461	0	32713	32775	32716	32752	36993	34085	34821	
462	0	32758	32747	32699	32675	36999	34079	34813	
463	0	32743	32758	32539	32833	36977	34085	34823	
464	0	32720	32726	32701	32775	36999	34083	34822	
465	0	32812	32642	32670	32620	36986	34099	34813	
466	0	32770	32716	32514	32720	36979	34109	34816	
467	0	32698	32594	32647	32796	37010	34111	34803	
468	0	32772	32647	32603	32647	36982	34089	34797	
469	0	32775	32607	32537	32747	36944	34114	34798	
470	0	32802	32708	32563	32791	37007	34108	34799	
471	0	32788	32632	32653	32621	37017	34113	34823	
472	0	32706	32754	32621	32592	36995	34138	34823	
473	0	32757	32684	32742	32768	36996	34129	34803	
474	0	32706	32749	32620	32690	36975	34136	34793	
475	0	32759	32723	32511	32826	36999	34143	34806	
476	0	32760	32609	32656	32621	36995	34119	34804	
477	0	32730	32655	32670	32709	36982	34119	34816	
478	0	32818	32579	32570	32835	36982	34107	34816	
479	0	32724	32711	32688	32731	36980	34111	34798	
480	0	32714	32585	32522	32676	36987	34101	34823	
481	0	32752	32814	32525	32655	37027	34119	34814	
482	0	32758	32692	32602	32832	36999	34091	34821	
483	0	32786	32643	32543	32801	36989	34105	34770	
484	0	32782	32775	32610	32774	36994	34077	34780	
485	0	32768	32729	32507	32766	37010	34073	34767	
486	0	32730	32698	32540	32827	37027	34093	34811	
487	0	32775	32695	32550	32775	36976	34105	34797	
488	0	32793	32549	32613	32695	36983	34111	34810	
489	0	32722	32604	32630	32797	36999	34095	34789	
490	0	32720	32530	32686	32706	36999	34098	34799	
491	0	32811	32685	32726	32775	36999	34132	34815	
492	0	32737	32527	32706	32647	36999	34131	34815	
493	0	32684	32736	32566	32623	37012	34133	34796	
494	0	32810	32775	32775	32775	37015	34112	34786	
495	0	32692	32630	32725	32813	37010	34125	34785	
496	0	32696	32487	32679	32775	36999	34123	34759	
497	0	32755	32727	32511	32583	36976	34119	34787	
498	0	32775	32694	32608	32734	36969	34128	34782	
499	0	32646	32704	32647	32687	36966	34119	34775	
500	0	32632	32581	32647	32662	36989	34119	34784	
501	0	32952	32583	32654	32759	36976	34153	34802	
502	0	32868	32707	32730	32767	36982	34130	34819	
503	0	32731	32708	32742	32775	36994	34155	34802	
504	0	32802	32599	32551	32742	36948	34131	34786	
505	0	32479	32738	32566	32848	36946	34133	34766	
506	0	32647	32723	32583	32672	36969	34119	34800	
507	0	33006	32601	32567	32751	36960	34128	34790	
508	0	32940	32743	32499	32839	36978	34114	34785	
509	0	32740	32627	32528	32812	36986	34119	34771	
510	0	32538	32534	32775	32623	36971	34146	34786	
511	0	32618	32717	32600	32775	36978	34145	34818	
512	0	32848	32707	32557	32640	36984	34128	34778	
513	0	32918	32678	32603	32809	36983	34091	34781	
514	0	32687	32674	32627	32845	36987	34081	34809	
515	0	32686	32588	32676	32756	36995	34106	34790	
516	0	32838	32724	32719	32723	36995	34119	34795	
517	0	32742	32733	32662	32635	37022	34146	34779	
518	0	32833	32741	32668	32599	36978	34168	34766	
519	0	32784	32647	32691	32738	36967	34183	34743	
520	0	32640	32667	32764	32694	36933	34164	34747	
521	0	32864	32647	32694	32806	36999	34153	34814	
522	0	32838	32615	32505	32667	36984	34148	34780	
523	0	32810	32765	32606	32614	37010	34168	34795	
524	0	32804	32647	32536	32748	37053	34230	34799	
525	0	32912	32567	32711	32736	36999	34225	34763	
526	0	32534	32834	32849	33017	37051	34267	34823	
527	0	32893	32699	32671	32707	36946	34206	34781	
528	0	32790	32786	32608	32569	36999	34163	34783	
529	0	32754	32658	32617	32722	36982	34143	34808	
530	0	32642	32769	32502	32686	36903	34107	34787	
531	0	32790	32566	32431	32687	37035	34149	34851	
532	0	32800	32743	32765	32771	36951	34175	34806	
533	0	32701	32775	32694	32775	36973	34209	34870	
534	0	32766	32681	32540	32757	37014	34161	34875	
535	0	32790	32730	32640	32790	36975	34153	34843	
536	0	32687	32699	32669	32760	36978	34149	34874	
537	0	32729	32583	32680	32694	36982	34164	34879	
538	0	32680	32723	32585	32818	36935	34162	34875	
539	0	32570	32702	32706	32717	36962	34151	34879	
540	0	32790	32759	32549	32752	36931	34137	34871	
541	0	32918	32668	32535	32825	36940	34111	34849	
542	0	32624	32711	32590	32608	36966	34098	34802	
543	0	32792	32698	32539	32852	36946	34129	34798	
544	0	32775	32666	32521	32680	37046	34164	34868	
545	0	32717	32711	32684	32762	36930	34139	34790	
546	0	32798	32775	32463	32737	36958	34183	34848	
547	0	32709	32569	32775	32748	37030	34171	34861	
548	0	32738	32682	32758	32760	36932	34213	34843	
549	0	32704	32743	32621	32775	36893	34213	34818	
550	0	32820	32795	32750	32831	36975	34203	34860	
551	0	32632	32775	32628	32629	36998	34168	34853	
552	0	32664	32656	32610	32679	37019	34153	34846	
553	0	32810	32641	32739	32659	36999	34168	34845	
554	0	32793	32635	32605	32723	36963	34194	34860	
555	0	32801	32742	32711	32732	36986	34197	34871	
556	0	32658	32716	32633	32711	36922	34178	34866	
557	0	32742	32550	32694	32720	36942	34164	34848	
558	0	32732	32681	32688	32756	36935	34151	34887	
559	0	32793	32735	32647	32665	36970	34141	34894	
560	0	32700	32743	32687	32678	36935	34127	34854	
561	0	32775	32695	32613	32623	36998	34112	34870	
562	0	32719	32775	32643	32718	36980	34103	34841	
563	0	32660	32738	32647	32743	36987	34137	34857	
564	0	32718	32542	32731	32667	36999	34141	34900	
565	0	32833	32647	32558	32832	36968	34181	34868	
566	0	32752	32575	32505	32660	36966	34175	34863	
567	0	32819	32679	32636	32695	36983	34166	34855	
568	0	32603	32644	32597	32623	36966	34164	34799	
569	0	32903	32718	32656	32685	36911	34134	34792	
570	0	32709	32710	32647	32735	36903	34110	34822	
571	0	32902	32636	32583	32767	36917	34119	34838	
572	0	32694	32578	32720	32762	37037	34125	34870	
573	0	32898	32767	32680	32775	36935	34119	34793	
574	0	32684	32567	32695	32711	36931	34199	34866	
575	0	32754	32742	32534	32814	37063	34207	34919	
576	0	32724	32627	32656	32775	37010	34183	34868	
577	0	32654	32703	32571	32822	36915	34179	34806	
578	0	32781	32485	32576	32829	36970	34183	34823	
579	0	32596	32690	32596	32742	36999	34136	34847	
580	0	32781	32556	32593	32647	36897	34127	34812	
581	0	32748	32679	32566	32677	36865	34153	34810	
582	0	32745	32690	32591	32832	36983	34162	34865	
583	0	32621	32703	32623	32702	36961	34139	34818	
584	0	32772	32736	32615	32827	36892	34175	34823	
585	0	32808	32731	32463	32744	36991	34183	34880	
586	0	32770	32676	32684	32793	36955	34174	34836	
587	0	32823	32535	32487	32775	36944	34189	34849	
588	0	32723	32743	32570	32769	37012	34169	34854	
589	0	32796	32749	32678	32802	36931	34141	34839	
590	0	32639	32508	32485	32775	36990	34161	34860	
591	0	32864	32718	32643	32759	36962	34119	34831	
592	0	32658	32647	32495	32815	36947	34136	34859	
593	0	32751	32759	32716	32640	36935	34104	34822	
594	0	32736	32615	32543	32724	36966	34123	34852	
595	0	32775	32706	32570	32739	36954	34130	34864	
596	0	32715	32715	32576	32684	36939	34156	34854	
597	0	32749	32647	32815	32775	36986	34165	34875	
598	0	32856	32711	32721	32784	36935	34160	34842	
599	0	32794	32663	32727	32821	36960	34167	34883	
600	0	32760	32578	32687	32679	36961	34143	34847	
601	0	32728	32727	32621	32620	36984	34179	34863	
602	0	32824	32511	32583	32647	36907	34141	34814	
603	0	32772	32600	32642	32604	36999	34149	34843	
604	0	32758	32754	32518	32775	36927	34141	34823	
605	0	32560	32791	32675	32971	36995	34157	34823	
606	0	32620	32685	32775	32729	36976	34152	34853	
607	0	32910	32721	32551	32594	36945	34153	34822	
608	0	32877	32748	32566	32731	36987	34156	34839	
609	0	32820	32724	32672	32768	36976	34145	34867	
610	0	32674	32718	32542	32746	36923	34151	34815	
611	0	32729	32680	32617	32691	36980	34163	34823	
612	0	32902	32687	32634	32775	36990	34177	34850	
613	0	32752	32583	32516	32758	36982	34156	34839	
614	0	32860	32765	32546	32790	36967	34125	34823	
615	0	32880	32659	32557	32772	36963	34146	34857	
616	0	32843	32587	32681	32579	36919	34168	34867	
617	0	32986	32696	32554	32799	36951	34171	34851	
618	0	32628	32806	32459	32681	36973	34168	34855	
619	0	32769	32576	32678	32695	36976	34123	34849	
620	0	32738	32704	32688	32775	36968	34134	34806	
621	0	32542	32775	32492	32647	36979	34150	34847	
622	0	32835	32583	32507	32737	36967	34161	34836	
623	0	32496	32550	32758	32675	36923	34147	34823	
624	0	32620	32516	32664	32711	36964	34144	34857	
625	0	32744	32759	32537	32851	36941	34119	34857	
626	0	32666	32734	32581	32644	36922	34119	34815	
627	0	32838	32617	32686	32749	36971	34153	34841	
628	0	32918	32742	32719	32628	36965	34179	34851	
629	0	32722	32647	32504	32727	36871	34149	34815	
630	0	32690	32687	32727	32775	36978	34183	34859	
631	0	32760	32747	32647	32663	36890	34190	34823	
632	0	32717	32580	32720	32786	36976	34176	34895	
633	0	32711	32559	32683	32658	36971	34193	34886	
634	0	32741	32563	32666	32764	36974	34209	34907	
635	0	32829	32693	32763	32862	36955	34169	34911	
636	0	33016	32775	32647	32720	36968	34157	34887	
637	0	32683	32668	32681	32620	36951	34144	34894	
638	0	32745	32587	32619	32703	36935	34157	34861	
639	0	32690	32567	32497	32615	36938	34151	34863	
640	0	32582	32703	32676	32706	36939	34119	34841	
641	0	32891	32719	32784	32723	36917	34127	34846	
642	0	32863	32710	32757	32759	36919	34135	34818	
643	0	32761	32500	32626	32876	36951	34112	34847	
644	0	32713	32653	32576	32807	37040	34133	34870	
645	0	32864	32750	32669	32756	36979	34143	34854	
646	0	32890	32686	32772	32775	36983	34183	34866	
647	0	32921	32735	32822	32695	37019	34188	34916	
648	0	32439	32791	32525	32735	36916	34181	34878	
649	0	32638	32839	32773	32605	36962	34152	34847	
650	0	32698	32677	32736	32775	36941	34151	34798	
651	0	32626	32766	32699	32775	36868	34098	34758	
652	0	32726	32758	32732	32752	36944	34119	34843	
653	0	32698	32711	32652	32697	36860	34162	34842	
654	0	32740	32496	32611	32659	36951	34157	34875	
655	0	32748	32627	32677	32676	36902	34192	34879	
656	0	33033	32547	32595	32656	36950	34206	34915	
657	0	32820	32764	32707	32818	36995	34215	34887	
658	0	32726	32761	32530	32730	36962	34197	34885	
659	0	32838	32788	32775	32623	36920	34177	34893	
660	0	32805	32802	32670	32702	36982	34157	34883	
661	0	32937	32532	32694	32775	36968	34162	34887	
662	0	32570	32762	32482	32775	36960	34162	34898	
663	0	32760	32653	32647	32775	36933	34151	34864	
664	0	32699	32723	32662	32637	36951	34151	34881	
665	0	32752	32755	32646	32839	36946	34157	34875	
666	0	32794	32616	32742	32637	36946	34147	34858	
667	0	32760	32735	32663	32775	36976	34168	34839	
668	0	32704	32731	32672	32771	36982	34153	34855	
669	0	32679	32674	32633	32715	36926	34179	34855	
670	0	32829	32579	32477	32742	36930	34151	34846	
671	0	32800	32664	32835	32819	36967	34147	34841	
672	0	32623	32460	32617	32654	36940	34147	34867	
673	0	32798	32547	32548	32807	36971	34155	34867	
674	0	32775	32710	32527	32773	36914	34159	34874	
675	0	32816	32755	32638	32742	36927	34165	34853	
676	0	32748	32555	32668	32775	37012	34160	34863	
677	0	32737	32711	32663	32694	36999	34175	34870	
678	0	32650	32743	32685	32832	36921	34155	34875	
679	0	33135	32692	32707	32719	36870	34105	34864	
680	0	32636	32704	32551	32796	36864	34114	34854	
681	0	32936	32728	32463	32825	36935	34124	34896	
682	0	32802	32775	32582	32685	36927	34161	34887	
683	0	32697	32618	32542	32713	36890	34151	34855	
684	0	32785	32751	32595	32765	36969	34179	34872	
685	0	32370	32731	32888	32887	36968	34171	34919	
686	0	32623	32683	32809	32803	36967	34160	34907	
687	0	32812	32690	32453	32688	36971	34183	34896	
688	0	32832	32686	32491	32647	36975	34175	34906	
689	0	32736	32627	32639	32608	36935	34171	34887	
690	0	32841	32718	32569	32706	36909	34175	34870	
691	0	32830	32683	32735	32684	36887	34156	34850	
692	0	32742	32763	32730	32731	36893	34141	34837	
693	0	32644	32668	32599	32837	36912	34153	34855	
694	0	32813	32717	32711	32771	36959	34113	34911	
695	0	32746	32535	32603	32802	36976	34149	34880	
696	0	32762	32650	32680	32726	37039	34181	34959	
697	0	32842	32738	32608	32558	36924	34220	34934	
698	0	32707	32692	32799	32697	36951	34183	34968	
699	0	32818	32720	32495	32819	36973	34165	34973	
700	0	32868	32727	32694	32808	36895	34119	34897	
701	0	32760	32771	32690	32671	36923	34111	34857	
702	0	32868	32638	32557	32807	36955	34113	34872	
703	0	32802	32595	32562	32767	36919	34093	34836	
704	0	32677	32703	32606	32757	36914	34127	34855	
705	0	32786	32828	32671	32688	36987	34156	34899	
706	0	32755	32703	32710	32727	36919	34178	34882	
707	0	32579	32515	32505	32813	36931	34173	34873	
708	0	33037	32743	32497	32801	36971	34194	34902	
709	0	32886	32586	32761	32679	36935	34175	34873	
710	0	32704	32811	32530	32740	36963	34156	34909	
711	0	32740	32684	32790	32704	36923	34188	34874	
712	0	32668	32687	32750	32775	36979	34146	34857	
713	0	32834	32695	32687	32741	36901	34148	34850	
714	0	32636	32788	32705	32710	36979	34171	34915	
715	0	32976	32775	32560	32647	36914	34143	34903	
716	0	32838	32738	32597	32748	36862	34137	34879	
717	0	32742	32723	32638	32775	36890	34153	34843	
718	0	32704	32598	32470	32795	36909	34153	34886	
719	0	32728	32710	32614	32615	36913	34161	34911	
720	0	32580	32583	32646	32824	36968	34159	34940	
721	0	32822	32538	32542	32775	36960	34173	34924	
722	0	32902	32593	32543	32793	36976	34150	34909	
723	0	32675	32718	32647	32793	36987	34129	34896	
724	0	32727	32747	32727	32677	36974	34137	34887	
725	0	32637	32766	32775	32689	36932	34149	34902	
726	0	32929	32699	32520	32723	36939	34150	34919	
727	0	32718	32807	32756	32828	36960	34128	34919	
728	0	32617	32728	32722	32607	36929	34151	34909	
729	0	32670	32631	32643	32752	36931	34151	34902	
730	0	32894	32751	32674	32704	36939	34156	34887	
731	0	32775	32692	32579	32787	36931	34149	34890	
732	0	32819	32793	32760	32804	36932	34139	34882	
733	0	32828	32720	32735	32731	36895	34143	34870	
734	0	32647	32605	32646	32747	36887	34171	34887	
735	0	32568	32717	32621	32802	36986	34148	34941	
736	0	32745	32579	32627	32803	36994	34160	34908	
737	0	32548	32647	32691	32631	36966	34151	34904	
738	0	32710	32631	32597	32711	36917	34141	34902	
739	0	32739	32759	32764	32775	36929	34158	34885	
740	0	32894	32711	32647	32775	36962	34148	34891	
741	0	32710	32678	32511	32804	36935	34130	34882	
742	0	32653	32683	32626	32667	36936	34153	34866	
743	0	32633	32774	32671	32745	36947	34157	34887	
744	0	32744	32598	32703	32775	36911	34153	34867	
745	0	32812	32730	32745	32767	36926	34156	34881	
746	0	33042	32597	32786	32710	36902	34146	34883	
747	0	32658	32770	32606	32786	36935	34131	34896	
748	0	32731	32646	32658	32620	36947	34134	34893	
749	0	32674	32720	32739	32722	36966	34142	34885	
750	0	32750	32699	32531	32672	36908	34147	34898	
751	0	32770	32739	32680	32646	37010	34156	34921	
752	0	32923	32751	32628	32716	36963	34127	34893	
753	0	32972	32724	32481	32822	36889	34145	34898	
754	0	32692	32711	32652	32720	36951	34149	34909	
755	0	32666	32596	32771	32819	36919	34109	34887	
756	0	32747	32711	32697	32742	36842	34129	34874	
757	0	32730	32759	32679	32771	36936	34143	34894	
758	0	32748	32541	32577	32679	36958	34119	34913	
759	0	32804	32758	32624	32721	36909	34142	34911	
760	0	32772	32775	32733	32734	36901	34166	34930	
761	0	32552	32615	32697	32795	36946	34175	34915	
762	0	32721	32682	32675	32620	36946	34183	34902	
763	0	32768	32612	32566	32640	36924	34153	34919	
764	0	32780	32772	32532	32782	36943	34129	34883	
765	0	32864	32630	32536	32571	36941	34135	34867	
766	0	32918	32549	32583	32799	36933	34151	34887	
767	0	32448	32765	32775	32922	36938	34164	34854	
768	0	32716	32592	32696	32698	36930	34141	34875	
769	0	32841	32688	32579	32689	36967	34146	34893	
770	0	32740	32839	32590	32811	36964	34131	34898	
771	0	32734	32619	32703	32711	36950	34145	34894	
772	0	32734	32690	32683	32646	36968	34169	34893	
773	0	32839	32721	32569	32711	36978	34177	34881	
774	0	32658	32666	32766	32647	36987	34175	34911	
775	0	32608	32559	32656	32630	36926	34135	34887	
776	0	32745	32653	32678	32775	36905	34143	34906	
777	0	32738	32673	32710	32770	36963	34131	34928	
778	0	32684	32711	32757	32749	36891	34147	34896	
779	0	32730	32763	32751	32775	36935	34166	34937	
780	0	32704	32673	32684	32775	36954	34159	34931	
781	0	32798	32775	32736	32768	36926	34111	34905	
782	0	32980	32664	32544	32745	36911	34117	34896	
783	0	32680	32674	32806	32775	36995	34139	34930	
784	0	32696	32609	32631	32775	36938	34143	34898	
785	0	32728	32679	32704	32731	36871	34165	34872	
786	0	32678	32795	32679	32745	36939	34171	34891	
787	0	32967	32554	32647	32816	36992	34119	34935	
788	0	32784	32741	32507	32655	36935	34111	34894	
789	0	32617	32807	32727	32794	36871	34138	34880	
790	0	32922	32771	32566	32775	36951	34143	34910	
791	0	32668	32573	32487	32612	36969	34183	34887	
792	0	32814	32655	32528	32795	36958	34134	34919	
793	0	32696	32754	32641	32763	36931	34155	34903	
794	0	32836	32617	32757	32821	36928	34151	34922	
795	0	32696	32680	32767	32602	36911	34143	34919	
796	0	32775	32669	32702	32690	36911	34162	34918	
797	0	32808	32687	32634	32775	36918	34142	34912	
798	0	32762	32722	32644	32791	36955	34156	34899	
799	0	32684	32699	32560	32669	36939	34123	34927	
800	0	32877	32783	32673	32711	36907	34119	34907	
801	0	32756	32759	32684	32775	36915	34118	34909	
802	0	32748	32762	32761	32796	36918	34114	34915	
803	0	32612	32691	32436	32637	36929	34143	34920	
804	0	32788	32527	32498	32793	36944	34137	34912	
805	0	32852	32775	32710	32740	36935	34117	34933	
806	0	32754	32583	32525	32819	36943	34157	34914	
807	0	32834	32647	32699	32800	36915	34131	34924	
808	0	32612	32806	32611	32703	36914	34119	34943	
809	0	32916	32683	32683	32798	36946	34125	34905	
810	0	32775	32765	32688	32775	36923	34139	34907	
811	0	32822	32707	32734	32811	36927	34147	34902	
812	0	32711	32645	32722	32775	36935	34148	34898	
813	0	32932	32638	32550	32762	36936	34131	34898	
814	0	32816	32773	32718	32758	36934	34115	34912	
815	0	32792	32703	32633	32775	36929	34135	34898	
816	0	32868	32711	32664	32639	36944	34136	34910	
817	0	32680	32742	32726	32832	36939	34141	34903	
818	0	32751	32720	32646	32754	36934	34156	34883	
819	0	32770	32640	32721	32622	36964	34131	34919	
820	0	32762	32615	32579	32727	36914	34139	34923	
821	0	32758	32599	32596	32708	36914	34144	34909	
822	0	32678	32602	32652	32813	36910	34134	34917	
823	0	32769	32552	32758	32707	36912	34128	34914	
824	0	32684	32762	32574	32644	36905	34131	34898	
825	0	32840	32711	32688	32763	36922	34137	34891	
826	0	32902	32562	32730	32684	36960	34150	34911	
827	0	32738	32510	32603	32658	36905	34119	34903	
828	0	32722	32607	32661	32719	36947	34141	34915	
829	0	32676	32673	32679	32647	36951	34149	34919	
830	0	32730	32685	32666	32843	36947	34138	34907	
831	0	32800	32659	32509	32679	36932	34118	34883	
832	0	32654	32799	32530	32627	36935	34127	34885	
833	0	32785	32557	32626	32811	36892	34105	34898	
834	0	32672	32760	32635	32631	36930	34125	34894	
835	0	32707	32724	32568	32619	36903	34147	34893	
836	0	32796	32826	32706	32802	36980	34143	34895	
837	0	32832	32748	32749	32811	36939	34126	34899	
838	0	32722	32524	32695	32666	36950	34130	34911	
839	0	32848	32566	32605	32799	36944	34119	34909	
840	0	32881	32723	32414	32750	36939	34125	34895	
841	0	32728	32661	32722	32676	36943	34130	34881	
842	0	32736	32731	32614	32775	36912	34161	34863	
843	0	32920	32667	32518	32775	36962	34162	34878	
844	0	32902	32812	32684	32799	36946	34119	34887	
845	0	32720	32799	32785	32772	36934	34117	34885	
846	0	32849	32696	32699	32634	36938	34117	34896	
847	0	32924	32545	32570	32733	36960	34139	34874	
848	0	32730	32603	32658	32768	36945	34148	34887	
849	0	32727	32703	32769	32831	36959	34117	34887	
850	0	32574	32597	32601	32914	36935	34141	34873	
851	0	32841	32775	32538	32671	36939	34119	34899	
852	0	32840	32542	32450	32747	36953	34115	34887	
853	0	32844	32733	32633	32696	36947	34103	34887	
854	0	32775	32690	32647	32810	36960	34116	34883	
855	0	32754	32610	32536	32623	36954	34151	34873	
856	0	32753	32720	32663	32774	36930	34142	34862	
857	0	32770	32654	32788	32853	36962	34129	34916	
858	0	32732	32849	32578	32791	36956	34142	34896	
859	0	32870	32566	32571	32775	36905	34139	34879	
860	0	32658	32579	32527	32625	36964	34171	34898	
861	0	32789	32772	32688	32899	36969	34171	34913	
862	0	32756	32589	32750	32726	36945	34165	34880	
863	0	32826	32729	32591	32743	36935	34141	34894	
864	0	32760	32805	32670	32775	36987	34107	34870	
865	0	32738	32647	32622	32803	36978	34105	34868	
866	0	32846	32731	32703	32766	36939	34125	34873	
867	0	32811	32654	32729	32803	36976	34136	34865	
868	0	32672	32535	32729	32729	36931	34137	34851	
869	0	32819	32486	32474	32742	36940	34119	34861	
870	0	32861	32791	32690	32754	36925	34129	34884	
871	0	32877	32734	32705	32793	36940	34136	34881	
872	0	32800	32635	32768	32775	36945	34136	34863	
873	0	32719	32578	32551	32680	36942	34151	34885	
874	0	32775	32601	32553	32790	36958	34161	34883	
875	0	32788	32710	32673	32859	36960	34139	34869	
876	0	32804	32745	32685	32766	36962	34178	34860	
877	0	32729	32498	32679	32774	36922	34164	34855	
878	0	32687	32786	32659	32807	36943	34148	34887	
879	0	32636	32557	32617	32632	36946	34134	34866	
880	0	32959	32542	32636	32583	36935	34139	34861	
881	0	32804	32771	32617	32707	36967	34131	34883	
882	0	32768	32623	32591	32806	36955	34132	34867	
883	0	32784	32805	32716	32728	36950	34151	34859	
884	0	32795	32725	32690	32662	36950	34137	34869	
885	0	32756	32762	32735	32782	36953	34127	34861	
886	0	32775	32647	32638	32768	36973	34136	34843	
887	0	32769	32727	32497	32795	36975	34137	34866	
888	0	32848	32757	32552	32775	36951	34143	34859	
889	0	32737	32698	32719	32813	36979	34145	34855	
890	0	32818	32738	32514	32631	36971	34128	34861	
891	0	32874	32645	32674	32726	36976	34157	34841	
892	0	32681	32775	32662	32698	36974	34144	34861	
893	0	32890	32671	32690	32769	36965	34149	34855	
894	0	32768	32702	32678	32711	36951	34136	34865	
895	0	32807	32581	32667	32829	36957	34149	34848	
896	0	32748	32716	32495	32737	36974	34141	34843	
897	0	32708	32743	32532	32773	36955	34153	34823	
898	0	32808	32800	32740	32767	36955	34166	34841	
899	0	32832	32694	32525	32763	36951	34151	34836	
900	0	32800	32758	32629	32700	36969	34130	34857	
901	0	32740	32775	32711	32675	36955	34178	34848	
902	0	32763	32647	32664	32686	36966	34171	34841	
903	0	32888	32717	32572	32785	36935	34183	34843	
904	0	32738	32626	32686	32775	36951	34150	34855	
905	0	32769	32534	32527	32742	36955	34151	34854	
906	0	32712	32558	32609	32794	36950	34149	34849	
907	0	32775	32720	32633	32739	36973	34164	34823	
908	0	32744	32679	32586	32797	36954	34181	34841	
909	0	32706	32720	32678	32628	36979	34156	34840	
910	0	32808	32803	32790	32854	36987	34152	34856	
911	0	32688	32578	32636	32642	36954	34159	34846	
912	0	32754	32722	32716	32632	36943	34151	34856	
913	0	32818	32549	32624	32794	36946	34139	34852	
914	0	32765	32736	32669	32791	36951	34144	34855	
915	0	32741	32681	32678	32786	36951	34151	34841	
916	0	32722	32635	32731	32802	36955	34157	34832	
917	0	32714	32715	32765	32643	36946	34136	34823	
918	0	32813	32567	32767	32696	36969	34135	34819	
919	0	32749	32570	32610	32651	36930	34130	34816	
920	0	32686	32729	32566	32671	36971	34159	34823	
921	0	32796	32695	32740	32824	36978	34165	34854	
922	0	32736	32643	32535	32750	36966	34181	34841	
923	0	32698	32603	32647	32742	36947	34166	34849	
924	0	32870	32723	32560	32612	36930	34171	34842	
925	0	32713	32769	32663	32803	36978	34159	34848	
926	0	32697	32531	32485	32696	36951	34166	34823	
927	0	32822	32773	32431	32710	36947	34157	34811	
928	0	32806	32708	32559	32741	36963	34139	34835	
929	0	32686	32775	32606	32863	36965	34166	34835	
930	0	32552	32677	32733	32951	36982	34173	34823	
931	0	32961	32729	32659	32720	36957	34165	34807	
932	0	32832	32679	32621	32767	36973	34162	34835	
933	0	32775	32746	32590	32628	36962	34164	34823	
934	0	32786	32769	32647	32782	36960	34159	34838	
935	0	32790	32806	32499	32771	36967	34153	34839	
936	0	32782	32655	32621	32624	36948	34183	34818	
937	0	32757	32708	32685	32866	36982	34171	34843	
938	0	32864	32795	32647	32775	36963	34183	34836	
939	0	32931	32769	32615	32833	36978	34175	34823	
940	0	32703	32617	32573	32665	36962	34153	34822	
941	0	32686	32804	32570	32831	36980	34181	34853	
942	0	32820	32620	32711	32699	36959	34179	34849	
943	0	32711	32775	32588	32760	36987	34169	34823	
944	0	32839	32681	32615	32747	36964	34162	34823	
945	0	32781	32531	32719	32672	36930	34160	34795	
946	0	32690	32701	32606	32737	36969	34167	34783	
947	0	32698	32570	32438	32775	36922	34167	34791	
948	0	32750	32752	32595	32754	36955	34162	34781	
949	0	32883	32683	32615	32815	36956	34165	34774	
950	0	32728	32736	32614	32600	36960	34165	34783	
951	0	32816	32646	32775	32644	36957	34168	34810	
952	0	32745	32775	32563	32761	36967	34193	34797	
953	0	32788	32570	32439	32822	36989	34203	34823	
954	0	32762	32786	32551	32643	37007	34198	34823	
955	0	32842	32671	32670	32717	36999	34199	34835	
956	0	32742	32742	32756	32802	37024	34217	34813	
957	0	32818	32531	32715	32791	37019	34199	34807	
958	0	32710	32775	32772	32795	37005	34206	34804	
959	0	32752	32666	32677	32818	37024	34173	34822	
960	0	32802	32711	32682	32729	36949	34176	34819	
961	0	32664	32793	32626	32690	36959	34171	34821	
962	0	32650	32738	32700	32717	36978	34164	34815	
963	0	32810	32739	32675	32717	36994	34143	34823	
964	0	32742	32748	32475	32775	36993	34154	34823	
965	0	32849	32625	32733	32756	36967	34161	34823	
966	0	32868	32701	32688	32725	36982	34174	34836	
967	0	32750	32756	32745	32839	36967	34176	34823	
968	0	32712	32742	32535	32667	36944	34177	34823	
969	0	32806	32715	32500	32630	36935	34167	34838	
970	0	32772	32743	32672	32629	36955	34156	34838	
971	0	32852	32775	32727	32752	36978	34143	34823	
972	0	32671	32740	32465	32615	36960	34141	34746	
973	0	32804	32677	32647	32775	36966	34215	34772	
974	0	32767	32767	32507	32805	36995	34202	34792	
975	0	32674	32635	32527	32753	36978	34205	34771	
976	0	32712	32717	32583	32643	36935	34226	34803	
977	0	32704	32562	32492	32680	37047	34212	34809	
978	0	32739	32647	32524	32507	36991	34165	34758	
979	0	32784	32687	32746	32653	36930	34183	34759	
980	0	32762	32808	32724	32731	36987	34178	34798	
981	0	32820	32704	32519	32759	37023	34181	34798	
982	0	32752	32647	32697	32796	36935	34191	34775	
983	0	32736	32737	32691	32832	36942	34221	34809	
984	0	32653	33013	32531	33044	37029	34212	34861	
985	0	32775	32743	32750	32850	36941	34188	34823	
986	0	32740	32681	32740	32926	36930	34190	34811	
987	0	32729	32685	32765	32942	36933	34233	34846	
988	0	32743	32717	32687	32911	36974	34243	34869	
989	0	32723	32590	32583	32734	37037	34253	34878	
990	0	32640	32583	32655	32702	36983	34207	34852	
991	0	32918	32775	32627	32698	36978	34150	34823	
992	0	32683	32787	32675	32989	36945	34114	34802	
993	0	32795	32709	32562	32588	36944	34107	34799	
994	0	32814	32472	32767	32635	36999	34138	34758	
995	0	32793	32756	32742	32995	36973	34147	34742	
996	0	32808	32651	32666	32681	37016	34167	34747	
997	0	32756	32971	32642	32903	36987	34171	34759	
998	0	32870	32412	32520	32431	37015	34171	34766	
999	0	32754	32597	32560	32738	36935	34166	34766	
1000	0	32775	32637	32606	32836	37007	34188	34807	
1001	0	32764	32752	32760	32715	36954	34207	34766	
1002	0	32846	32550	32679	32526	37017	34230	34805	
1003	0	32738	32576	32623	32587	36925	34231	34758	
1004	0	32698	32876	32568	32729	36998	34237	34783	
1005	0	32686	32561	32654	32821	36935	34179	34736	
1006	0	32872	32813	32509	32688	36954	34212	34754	
1007	0	32877	32583	32536	32475	36978	34183	34780	
1008	0	32790	32530	32674	32628	36963	34183	34755	
1009	0	32689	32758	32865	32929	36999	34183	34800	
1010	0	32624	32616	32749	32951	36999	34207	34823	
1011	0	32854	32898	32576	32754	36988	34215	34811	
1012	0	32772	32839	32603	32695	36990	34199	34801	
1013	0	32775	32751	32795	32611	37011	34160	34823	
1014	0	32768	32764	32717	32743	36982	34157	34795	
1015	0	32859	32634	32564	32775	36976	34176	34800	
1016	0	32730	32577	32657	32747	36983	34169	34802	
1017	0	32756	32736	32763	32807	36989	34151	34795	
1018	0	32704	32524	32543	32686	36969	34133	34781	
1019	0	32686	32630	32678	32897	36947	34168	34811	
1020	0	32718	32521	32683	32678	36993	34205	34799	
1021	0	32839	32720	32658	32663	36973	34220	34795	
1022	0	32850	32704	32580	32609	36951	34204	34784	
1023	0	32783	32730	32631	32682	36957	34181	34802	
1024	0	32711	32688	32730	32807	36944	34173	34783	
1025	0	32859	32736	32737	32600	36967	34187	34746	
1026	0	32760	32655	32513	32682	37043	34194	34801	
1027	0	32712	32555	32679	32647	36944	34183	34754	
1028	0	32795	32762	32665	32770	36999	34183	34791	
1029	0	32677	32487	32568	32663	36992	34192	34781	
1030	0	32732	32723	32571	32823	37016	34201	34754	
1031	0	32750	32647	32690	32727	36944	34193	34780	
1032	0	32758	32583	32625	32647	36976	34188	34735	
1033	0	32794	32527	32590	32775	36960	34192	34754	
1034	0	32772	32791	32534	32679	36999	34178	34775	
1035	0	32852	32617	32668	32820	36983	34187	34741	
1036	0	32824	32775	32590	32660	37010	34199	34775	
1037	0	32696	32647	32494	32848	36990	34210	34774	
1038	0	32868	32738	32758	32749	37015	34204	34787	
1039	0	32859	32658	32647	32837	36990	34223	34819	
1040	0	32832	32615	32661	32671	37010	34226	34802	
1041	0	32748	32722	32626	32640	36992	34205	34796	
1042	0	32731	32583	32575	32788	36975	34181	34759	
1043	0	32743	32709	32688	32769	36993	34177	34779	
1044	0	32716	32551	32740	32598	36995	34151	34762	
1045	0	32760	32658	32589	32753	36984	34135	34797	
1046	0	32798	32727	32675	32729	36982	34151	34778	
1047	0	32681	32711	32550	32555	36968	34151	34784	
1048	0	32802	32562	32550	32730	36998	34161	34787	
1049	0	32724	32691	32767	32775	36999	34171	34787	
1050	0	32742	32742	32485	32746	37006	34182	34794	
1051	0	32846	32691	32542	32708	36999	34195	34833	
1052	0	32896	32699	32560	32640	37031	34207	34803	
1053	0	32706	32579	32773	32643	36994	34240	34786	
1054	0	32775	32681	32651	32832	37021	34219	34786	
1055	0	32745	32583	32546	32715	36955	34197	34759	
1056	0	32767	32607	32631	32967	36996	34187	34759	
1057	0	32781	32705	32698	32872	36975	34169	34738	
1058	0	32750	32810	32699	32789	36980	34181	34786	
1059	0	32764	32821	32679	32874	36999	34207	34754	
1060	0	32861	32526	32685	32745	36999	34216	34752	
1061	0	32704	32597	32701	32534	37017	34204	34756	
1062	0	32713	32458	32742	32712	36978	34194	34730	
1063	0	32732	32792	32694	32775	36988	34217	34765	
1064	0	32731	32876	32727	32946	37014	34177	34786	
1065	0	32926	32666	32581	32647	36967	34194	34735	
1066	0	32611	32798	32553	32815	36999	34193	34785	
1067	0	32844	32919	32583	32791	37033	34205	34790	
1068	0	32652	32674	32603	32662	36999	34183	34751	
1069	0	32827	32738	32703	32871	36958	34206	34754	
1070	0	32829	32617	32548	33016	36967	34205	34769	
1071	0	32540	32727	32686	32902	37016	34197	34775	
1072	0	32720	32655	32612	32711	37039	34159	34777	
1073	0	32862	32387	32512	32539	36983	34167	34752	
1074	0	32788	32837	32647	32867	36950	34168	34749	
1075	0	32774	32647	32653	32811	36932	34189	34763	
1076	0	32833	32674	32613	32773	36971	34191	34800	
1077	0	32775	32489	32619	32919	36995	34182	34791	
1078	0	32742	32736	32676	32870	36979	34179	34759	
1079	0	32682	32711	32671	32843	36999	34166	34770	
1080	0	32808	32881	32674	32820	36991	34183	34759	
1081	0	32811	32607	32687	32762	36964	34179	34771	
1082	0	32636	32538	32736	32559	37024	34183	34758	
1083	0	32927	32727	32615	32933	37019	34183	34770	
1084	0	32720	32425	32662	32516	37020	34183	34759	
1085	0	33069	32607	32688	32604	37021	34193	34778	
1086	0	32744	32877	32598	32627	36979	34176	34775	
1087	0	32700	32775	32563	32798	36987	34183	34763	
1088	0	32632	32748	32722	32951	36998	34157	34754	
1089	0	32682	32660	32704	32959	36998	34165	34765	
1090	0	32856	32771	32475	32500	36960	34183	34744	
1091	0	32794	32843	32757	32858	36960	34193	34759	
1092	0	32684	32555	32714	32788	36967	34193	34754	
1093	0	32668	32831	32647	32461	36997	34205	34732	
1094	0	32800	32943	32743	33017	36989	34207	34752	
1095	0	32583	33146	32566	33128	36991	34183	34763	
1096	0	32858	32774	32720	32634	37015	34188	34785	
1097	0	32768	32808	32846	32875	37012	34183	34807	
1098	0	32711	32746	32547	32695	37011	34173	34769	
1099	0	32739	32698	32582	32900	36978	34183	34770	
1100	0	32704	32704	32607	32775	36976	34183	34774	
1101	0	32814	32743	32610	32798	36998	34156	34791	
1102	0	32770	32733	32645	32819	36999	34156	34800	
1103	0	32715	32755	32578	32674	37017	34149	34775	
1104	0	32704	32574	32704	32752	36989	34159	34758	
1105	0	32688	32786	32684	32747	36979	34156	34751	
1106	0	32726	32586	32653	32799	36987	34179	34763	
1107	0	32772	32605	32694	32674	36973	34143	34759	
1108	0	32809	32543	32527	32756	36997	34139	34764	
1109	0	32839	32816	32582	32747	36979	34163	34764	
1110	0	32786	32534	32572	32771	36999	34163	34771	
1111	0	32775	32591	32674	32639	36999	34177	34770	
1112	0	32733	32691	32598	32788	36974	34187	34755	
1113	0	32749	32771	32615	32735	36995	34177	34776	
1114	0	32762	32663	32606	32758	36987	34166	34803	
1115	0	32775	32658	32669	32822	36965	34163	34811	
1116	0	32736	32729	32617	32616	36999	34168	34807	
1117	0	32804	32703	32723	32805	36947	34183	34799	
1118	0	32784	32752	32679	32615	36970	34170	34796	
1119	0	32763	32557	32629	32754	36959	34189	34793	
1120	0	32782	32756	32690	32624	36978	34172	34795	
1121	0	32758	32647	32671	32760	36975	34183	34776	
1122	0	32786	32511	32619	32722	36999	34189	34790	
1123	0	32742	32711	32615	32672	37031	34205	34765	
1124	0	32818	32571	32706	32744	37017	34215	34763	
1125	0	32775	32728	32668	32729	37014	34215	34759	
1126	0	32738	32727	32669	32744	37025	34169	34754	
1127	0	32912	32733	32678	32771	36989	34176	34743	
1128	0	32773	32559	32628	32775	36999	34183	34745	
1129	0	32796	32617	32699	32775	36999	34144	34773	
1130	0	32809	32535	32603	32612	36999	34159	34787	
1131	0	32836	32751	32555	32685	36999	34161	34767	
1132	0	32756	32750	32647	32807	36995	34143	34760	
1133	0	32781	32769	32759	32735	36999	34156	34759	
1134	0	32729	32562	32689	32836	37014	34147	34769	
1135	0	32740	32670	32723	32793	37005	34145	34778	
1136	0	32844	32703	32594	32715	37019	34173	34766	
1137	0	32732	32725	32606	32740	36995	34173	34775	
1138	0	32808	32647	32546	32757	36978	34156	34785	
1139	0	32740	32757	32726	32745	36971	34182	34789	
1140	0	32760	32775	32667	32822	36999	34165	34783	
1141	0	32804	32768	32688	32583	36990	34183	34784	
1142	0	32761	32559	32533	32799	37008	34183	34801	
1143	0	32864	32567	32699	32639	36953	34175	34791	
1144	0	32823	32669	32663	32784	36958	34175	34802	
1145	0	32802	32726	32680	32827	36997	34171	34803	
1146	0	32784	32683	32791	32666	36968	34183	34811	
1147	0	32800	32516	32669	32614	36982	34168	34820	
1148	0	32788	32715	32686	32677	36984	34178	34807	
1149	0	32784	32775	32719	32793	36999	34183	34788	
1150	0	32720	32567	32553	32839	36998	34169	34791	
1151	0	32715	32736	32745	32708	36993	34169	34768	
1152	0	32838	32773	32550	32831	36999	34145	34765	
1153	0	32706	32724	32677	32768	36999	34162	34766	
1154	0	32798	32711	32635	32703	36983	34161	34771	
1155	0	32760	32710	32673	32773	37015	34151	34767	
1156	0	32748	32647	32666	32742	37030	34142	34787	
1157	0	32774	32647	32566	32687	37016	34156	34786	
1158	0	32785	32775	32605	32705	36983	34159	34771	
1159	0	32800	32674	32624	32700	36974	34156	34766	
1160	0	32775	32720	32556	32850	36992	34147	34788	
1161	0	32760	32480	32761	32749	37006	34156	34759	
1162	0	32821	32737	32708	32817	36999	34149	34768	
1163	0	32699	32569	32564	32811	36992	34153	34774	
1164	0	32804	32593	32682	32683	37013	34166	34775	
1165	0	32846	32583	32688	32699	36973	34171	34800	
1166	0	32793	32713	32683	32623	36994	34165	34799	
1167	0	32699	32756	32796	32816	37006	34157	34800	
1168	0	32536	32803	32711	32828	36951	34151	34778	
1169	0	32816	32666	32489	32634	36962	34155	34785	
1170	0	32864	32632	32610	32731	36997	34153	34775	
1171	0	32813	32534	32626	32747	36995	34151	34795	
1172	0	32688	32755	32688	32790	37011	34175	34770	
1173	0	32829	32595	32658	32818	36999	34197	34783	
1174	0	32752	32571	32633	32801	36967	34196	34790	
1175	0	32755	32758	32613	32743	36996	34181	34780	
1176	0	32839	32679	32550	32704	37028	34166	34783	
1177	0	32744	32675	32572	32758	36986	34147	34784	
1178	0	32811	32789	32751	32690	36999	34155	34804	
1179	0	32775	32674	32463	32817	36983	34175	34799	
1180	0	32749	32731	32486	32743	36978	34192	34793	
1181	0	32796	32774	32759	32705	36983	34173	34802	
1182	0	32768	32638	32546	32617	36983	34130	34797	
1183	0	32684	32758	32506	32823	36982	34130	34779	
1184	0	32788	32736	32594	32800	36999	34151	34774	
1185	0	32764	32748	32707	32862	37006	34160	34757	
1186	0	32780	32775	32729	32664	36999	34175	34759	
1187	0	32674	32647	32628	32633	36982	34150	34754	
1188	0	32731	32818	32537	32740	36997	34146	34775	
1189	0	32880	32608	32679	32719	36999	34157	34771	
1190	0	32756	32537	32597	32647	36998	34173	34759	
1191	0	32771	32816	32607	32775	37011	34191	34774	
1192	0	32787	32646	32462	32766	37010	34182	34773	
1193	0	32804	32747	32647	32762	36990	34178	34759	
1194	0	32729	32652	32647	32718	36982	34174	34796	
1195	0	32816	32702	32723	32615	36986	34183	34793	
1196	0	32751	32579	32661	32800	36999	34175	34811	
1197	0	32748	32614	32691	32903	36976	34175	34791	
1198	0	32678	32692	32677	32658	36978	34165	34810	
1199	0	32844	32784	32647	32628	36978	34156	34812	
1200	0	32771	32679	32636	32409	36986	34149	34790	
1201	0	32856	32639	32771	32535	36965	34151	34781	
1202	0	32815	32689	32658	32676	36946	34151	34781	
1203	0	32736	32554	32601	32525	36986	34167	34783	
1204	0	32775	32723	32764	32771	36994	34171	34771	
1205	0	32704	32662	32769	32827	37012	34150	34783	
1206	0	32912	32715	32666	32675	37024	34160	34762	
1207	0	32732	32703	32674	32797	36998	34142	34776	
1208	0	32690	32726	32559	32879	36964	34165	34771	
1209	0	32834	32738	32559	32835	37006	34183	34759	
1210	0	32686	32612	32743	32587	37009	34151	34791	
1211	0	32834	32693	32775	32865	37018	34171	34774	
1212	0	32829	32614	32736	32634	37008	34183	34759	
1213	0	32842	32734	32839	32885	37008	34177	34759	
1214	0	32774	32810	32678	32854	37016	34170	34749	
1215	0	32647	32683	32493	32695	36992	34171	34765	
1216	0	32646	32717	32522	32864	37018	34169	34769	
1217	0	32612	32736	32561	32738	37036	34163	34778	
1218	0	32728	32744	32663	33143	36998	34166	34751	
1219	0	32748	32573	32646	32728	36983	34128	34788	
1220	0	32627	32623	32424	32690	36979	34169	34765	
1221	0	32775	32835	32738	32867	36999	34153	34773	
1222	0	32668	32769	32509	32812	36978	34145	34782	
1223	0	32678	32823	32766	32775	36960	34143	34772	
1224	0	32775	32839	32551	32883	36999	34157	34754	
1225	0	32688	32700	32642	32911	36983	34153	34784	
1226	0	32654	32817	32537	32805	37019	34169	34770	
1227	0	32775	32886	32613	33056	37007	34167	34787	
1228	0	32740	32593	32679	32587	37009	34173	34758	
1229	0	32669	32774	32576	32461	36995	34149	34797	
1230	0	32808	32967	32682	33049	36999	34167	34778	
1231	0	32851	32659	32610	32607	36983	34163	34781	
1232	0	32582	32910	32623	32826	36962	34167	34784	
1233	0	32749	32563	32726	32754	36987	34164	34777	
1234	0	32751	32856	32559	32707	36979	34138	34788	
1235	0	32796	32775	32552	32823	36987	34159	34787	
1236	0	32716	32530	32762	32855	36999	34161	34759	
1237	0	32713	32582	32662	32643	36999	34141	34752	
1238	0	32822	32614	32673	32799	37010	34176	34782	
1239	0	32836	32481	32711	32749	36986	34189	34774	
1240	0	32715	32439	32707	32259	36996	34164	34769	
1241	0	32742	32742	32765	32647	37021	34159	34755	
1242	0	32680	32555	32641	32426	36999	34151	34759	
1243	0	32772	32516	32654	32799	36999	34144	34775	
1244	0	32697	32768	32768	32608	36999	34131	34800	
1245	0	32736	32806	32583	32895	37012	34149	34769	
1246	0	32880	32211	32631	32527	36988	34153	34793	
1247	0	32808	32723	32476	32801	37013	34143	34779	
1248	0	32819	32674	32759	32963	36994	34170	34750	
1249	0	32658	32967	32857	33203	36992	34165	34784	
1250	0	32748	32643	32617	32871	36976	34156	34770	
1251	0	32812	32639	32566	32851	36962	34155	34759	
1252	0	32750	32705	32564	32491	37008	34149	34787	
1253	0	32735	32511	32612	32615	37015	34146	34795	
1254	0	32851	33068	32718	33377	37032	34166	34790	
1255	0	32752	32514	32765	32698	36960	34171	34767	
1256	0	32741	32870	32724	32759	36983	34157	34777	
1257	0	32760	32507	32634	32685	37015	34156	34778	
1258	0	32884	32658	32498	32867	37010	34136	34778	
1259	0	32784	32754	32738	32884	36983	34119	34771	
1260	0	32632	32729	32713	32719	36994	34140	34779	
1261	0	32792	32460	32699	32454	36994	34180	34816	
1262	0	32674	32567	32701	32709	36973	34166	34788	
1263	0	32710	32753	32684	32995	36999	34166	34798	
1264	0	32820	33083	32711	32579	37010	34119	34769	
1265	0	32658	32550	32651	32801	37021	34125	34775	
1266	0	32918	32775	32561	32423	36994	34125	34759	
1267	0	32722	32836	32629	32832	37031	34147	34758	
1268	0	32856	32762	32766	32646	37019	34156	34742	
1269	0	32800	32642	32622	32688	37017	34149	34752	
1270	0	32728	32856	32711	32809	37018	34141	34775	
1271	0	32786	32610	32605	32631	36999	34141	34776	
1272	0	32775	32671	32553	32791	37014	34153	34740	
1273	0	32767	32680	32629	32929	36939	34142	34771	
1274	0	32696	32583	32627	32820	36999	34128	34738	
1275	0	32888	32735	32619	32763	37035	34135	34768	
1276	0	32713	32923	32583	32940	36998	34141	34768	
1277	0	32692	32843	32702	33136	37022	34147	34785	
1278	0	32640	32738	32551	33035	37017	34157	34786	
1279	0	32728	32865	32599	32572	37026	34150	34793	
1280	0	32775	32806	32711	32767	37005	34161	34790	
1281	0	32798	32592	32613	32700	36993	34144	34779	
1282	0	32738	32861	32669	32822	37008	34133	34771	
1283	0	32784	32599	32768	32751	36960	34162	34754	
1284	0	32751	32768	32754	33118	36999	34137	34774	
1285	0	32792	32532	32799	32666	37028	34119	34775	
1286	0	32752	32800	32539	32707	37034	34117	34742	
1287	0	32741	32684	32514	32531	37072	34147	34738	
1288	0	32802	32614	32487	32626	37063	34172	34756	
1289	0	32808	32468	32638	32707	37060	34190	34737	
1290	0	32733	32855	32611	32727	37026	34160	34738	
1291	0	32784	32758	32694	32637	37030	34157	34759	
1292	0	32808	32642	32493	32684	36999	34163	34723	
1293	0	32800	32756	32583	32858	37017	34134	34725	
1294	0	32631	32747	32726	32367	37021	34081	34717	
1295	0	32626	32726	32528	33041	37056	34070	34706	
1296	0	32708	32530	32624	32483	37025	34080	34703	
1297	0	32661	32696	32671	32669	37103	34100	34729	
1298	0	32639	32709	32639	32855	37083	34141	34690	
1299	0	32800	32708	32593	32647	37051	34127	34687	
1300	0	32812	32646	32621	32754	37017	34157	34719	
1301	0	32738	32870	32659	32742	36974	34150	34711	
1302	0	32706	32415	32770	32815	36976	34123	34688	
1303	0	32740	32715	32638	32679	36999	34087	34683	
1304	0	32789	32815	32590	32899	36985	34083	34677	
1305	0	32803	33045	32723	32921	37024	34095	34695	
1306	0	32851	32740	32673	32775	37055	34102	34733	
1307	0	32804	32835	32679	32839	37087	34139	34759	
1308	0	32786	33014	32703	32535	37026	34215	34729	
1309	0	32760	32723	32637	32798	37006	34209	34765	
1310	0	32775	32773	32564	32775	37017	34181	34731	
1311	0	32837	32755	32684	32992	37087	34130	34713	
1312	0	32732	32771	32638	32518	37101	34089	34717	
1313	0	32752	32617	32613	32556	37072	34067	34695	
1314	0	32890	32639	32615	32551	37037	34111	34687	
1315	0	32764	32661	32596	32425	37115	34093	34706	
1316	0	32946	32577	32579	32860	37096	34081	34695	
1317	0	32782	32740	32710	32522	37078	34055	34693	
1318	0	32989	32903	32692	32925	37063	34050	34701	
1319	0	32543	32903	32573	33140	37027	34059	34671	
1320	0	32805	32647	32658	32933	37071	34052	34695	
1321	0	32924	32775	32595	32071	37107	34036	34686	
1322	0	32587	32673	32580	32675	37094	34077	34647	
1323	0	32696	32665	32794	32711	37071	34089	34663	
1324	0	32642	32611	32690	32304	37078	34091	34695	
1325	0	32548	32685	32699	32820	37078	34083	34694	
1326	0	32676	32655	32755	33072	37034	34088	34722	
1327	0	32856	32768	32570	32762	37043	34101	34717	
1328	0	32705	32810	32773	32585	37071	34067	34704	
1329	0	32964	32694	32538	32786	37048	34064	34677	
1330	0	32832	32988	32579	33047	37039	34055	34702	
1331	0	32850	32553	32474	32597	37016	34037	34722	
1332	0	32578	32702	32668	32920	37046	34054	34695	
1333	0	32676	32843	32775	32992	37054	34119	34675	
1334	0	32498	32661	32858	32487	37035	34164	34651	
1335	0	32711	32784	32494	32759	37082	34119	34655	
1336	0	32811	32637	32573	32561	37085	34103	34631	
1337	0	32786	32567	32695	32877	37061	34084	34673	
1338	0	32707	32682	32703	32245	37092	34059	34677	
1339	0	32688	32775	32717	32880	37017	34093	34662	
1340	0	32844	32637	32711	32939	37024	34115	34671	
1341	0	32792	32850	32736	32173	37084	34089	34711	
1342	0	32641	32863	32685	32799	37070	34061	34695	
1343	0	32706	32742	32643	32926	37051	34076	34664	
1344	0	32766	32617	32561	32647	37058	34104	34686	
1345	0	32736	32759	32548	32391	37087	34098	34665	
1346	0	32768	32621	32677	32743	37079	34103	34669	
1347	0	32763	32766	32728	33225	37087	34097	34686	
1348	0	32794	32647	32674	32643	37063	34095	34695	
1349	0	32806	32690	32559	32747	37044	34087	34695	
1350	0	32720	32839	32734	32773	37037	34087	34695	
1351	0	32738	32609	32564	32571	37026	34059	34704	
1352	0	32824	32882	32621	32775	37039	34023	34690	
1353	0	32850	32805	32551	32879	37063	34024	34677	
1354	0	32775	32685	32679	32845	37094	34073	34677	
1355	0	32818	32763	32775	32694	37094	34117	34679	
1356	0	32720	32825	32671	32515	37063	34135	34669	
1357	0	32798	32673	32530	32807	37063	34107	34673	
1358	0	32712	32482	32526	32678	37061	34091	34687	
1359	0	32752	32609	32734	32691	37020	34119	34671	
1360	0	32738	32530	32665	32646	37031	34118	34673	
1361	0	32711	32731	32647	32685	37037	34104	34669	
1362	0	32808	32818	32551	32743	37015	34109	34669	
1363	0	32713	32685	32658	32796	36999	34091	34691	
1364	0	32717	32683	32691	32773	37010	34101	34662	
1365	0	32765	32819	32514	32733	36971	34114	34653	
1366	0	32880	32728	32704	32711	36971	34119	34652	
1367	0	32801	32731	32576	32703	36966	34079	34659	
1368	0	32762	32571	32654	32775	36976	34080	34646	
1369	0	32644	32726	32496	32659	36959	34064	34617	
1370	0	32744	32711	32607	32797	37016	34054	34611	
1371	0	32743	32762	32645	32647	37075	34056	34597	
1372	0	32763	32646	32745	32761	37048	34085	34623	
1373	0	32748	32732	32738	32760	37042	34136	34648	
1374	0	32762	32441	32738	32798	37063	34162	34650	
1375	0	32760	32711	32562	32722	37112	34159	34683	
1376	0	32708	32635	32647	32775	37117	34192	34687	
1377	0	32732	32652	32549	32796	37122	34183	34695	
1378	0	32786	32742	32600	32675	37138	34199	34711	
1379	0	32752	32700	32823	32792	37089	34212	34698	
1380	0	32745	32645	32515	32736	37090	34183	34723	
1381	0	32824	32560	32506	32775	37024	34162	34719	
1382	0	32788	32796	32762	32647	37021	34163	34738	
1383	0	32796	32484	32610	32775	37019	34167	34719	
1384	0	32762	32751	32582	32769	36999	34148	34759	
1385	0	32724	32734	32573	32669	37055	34174	34726	
1386	0	32784	32689	32647	32749	37055	34183	34746	
1387	0	32773	32715	32766	32808	37047	34173	34786	
1388	0	32757	32652	32655	32622	37068	34183	34771	
1389	0	32814	32662	32550	32755	37058	34173	34797	
1390	0	32731	32690	32681	32766	37046	34193	34797	
1391	0	32769	32755	32579	32831	37023	34191	34776	
1392	0	32743	32701	32603	32699	37029	34191	34759	
1393	0	32747	32647	32559	32702	37014	34183	34759	
1394	0	32744	32698	32641	32623	36999	34169	34723	
1395	0	32818	32748	32566	32807	37010	34163	34719	
1396	0	32746	32714	32647	32623	37019	34142	34713	
1397	0	32722	32635	32516	32775	37024	34125	34732	
1398	0	32800	32727	32775	32743	37039	34143	34695	
1399	0	32768	32697	32564	32747	37037	34171	34710	
1400	0	32724	32576	32594	32632	37063	34176	34701	
1401	0	32733	32744	32499	32711	37033	34159	34709	
1402	0	32811	32711	32723	32801	37037	34174	34687	
1403	0	32773	32550	32665	32786	37031	34183	34681	
1404	0	32708	32630	32625	32694	37031	34166	34709	
1405	0	32745	32743	32512	32732	37046	34168	34679	
1406	0	32820	32674	32540	32698	37027	34146	34695	
1407	0	32775	32683	32647	32632	37039	34183	34695	
1408	0	32710	32815	32751	32801	37012	34169	34695	
1409	0	32786	32594	32704	32717	37033	34173	34717	
1410	0	32786	32731	32553	32743	37039	34159	34742	
1411	0	32772	32740	32535	32681	37042	34167	34737	
1412	0	32796	32784	32786	32751	37012	34169	34736	
1413	0	32790	32621	32575	32690	36997	34178	34739	
1414	0	32852	32583	32683	32578	36999	34169	34726	
1415	0	32718	32762	32675	32837	36998	34173	34752	
1416	0	32527	32639	32836	32933	37005	34175	34723	
1417	0	32698	32635	32679	32775	37019	34163	34719	
1418	0	32850	32845	32576	32642	36984	34161	34728	
1419	0	32807	32755	32738	32658	37023	34171	34738	
1420	0	32764	32545	32609	32775	37019	34159	34771	
1421	0	32816	32726	32711	32677	37011	34167	34731	
1422	0	32713	32719	32496	32795	37026	34175	34733	
1423	0	32739	32756	32756	32794	36994	34192	34738	
1424	0	32706	32763	32759	32775	37034	34183	34742	
1425	0	32775	32566	32603	32775	36992	34165	34733	
1426	0	32758	32708	32750	32709	36999	34170	34720	
1427	0	32795	32700	32658	32654	37056	34179	34738	
1428	0	32752	32807	32553	32746	37011	34211	34711	
1429	0	32743	32670	32618	32742	37035	34202	34707	
1430	0	32775	32700	32580	32730	37040	34191	34699	
1431	0	32800	32583	32643	32811	37044	34151	34708	
1432	0	32762	32736	32591	32809	37054	34147	34706	
1433	0	32746	32775	32632	32775	37031	34151	34694	
1434	0	32720	32690	32559	32647	37027	34166	34671	
1435	0	32715	32787	32623	32723	37027	34173	34675	
1436	0	32804	32694	32747	32775	37031	34136	34677	
1437	0	32818	32642	32646	32769	37034	34167	34686	
1438	0	32775	32764	32523	32599	37060	34161	34683	
1439	0	32748	32501	32731	32763	37029	34169	34673	
1440	0	32803	32733	32485	32752	37058	34180	34683	
1441	0	32741	32748	32663	32703	37038	34188	34677	
1442	0	32694	32683	32583	32670	37035	34187	34677	
1443	0	32811	32595	32515	32758	37042	34205	34667	
1444	0	32775	32658	32766	32790	37039	34188	34703	
1445	0	32752	32736	32654	32704	37036	34195	34693	
1446	0	32775	32736	32760	32697	37023	34201	34688	
1447	0	32738	32723	32642	32786	37023	34168	34695	
1448	0	32786	32639	32642	32758	37033	34176	34687	
1449	0	32750	32534	32520	32769	37036	34160	34683	
1450	0	32738	32808	32559	32690	37034	34153	34687	
1451	0	32788	32800	32551	32647	37039	34164	34695	
1452	0	32790	32601	32695	32751	37026	34171	34695	
1453	0	32763	32743	32589	32769	37040	34151	34677	
1454	0	32729	32554	32685	32850	37051	34157	34677	
1455	0	32758	32592	32592	32786	37022	34153	34687	
1456	0	32844	32749	32695	32796	37015	34164	34695	
1457	0	32747	32711	32584	32692	37031	34155	34711	
1458	0	32745	32758	32594	32754	37025	34169	34694	
1459	0	32757	32758	32594	32663	37039	34179	34693	
1460	0	32724	32763	32592	32683	36998	34172	34694	
1461	0	32742	32775	32530	32747	37031	34171	34695	
1462	0	32754	32663	32630	32701	37021	34179	34713	
1463	0	32764	32739	32728	32761	37014	34177	34695	
1464	0	32754	32758	32633	32677	37042	34181	34695	
1465	0	32767	32765	32560	32627	37039	34197	34695	
1466	0	32768	32682	32647	32800	37039	34201	34676	
1467	0	32816	32605	32531	32642	37021	34189	34702	
1468	0	32765	32743	32647	32823	37055	34189	34681	
1469	0	32802	32669	32591	32760	37019	34192	34682	
1470	0	32745	32735	32562	32851	37018	34183	34687	
1471	0	32793	32595	32527	32730	37029	34183	34681	
1472	0	32712	32583	32674	32764	37045	34176	34681	
1473	0	32810	32758	32551	32827	37057	34177	34674	
1474	0	32752	32704	32579	32722	37060	34183	34695	
1475	0	32761	32719	32739	32759	37040	34197	34679	
1476	0	32736	32791	32530	32725	37041	34176	34683	
1477	0	32793	32702	32726	32708	37006	34191	34695	
1478	0	32758	32727	32523	32854	36992	34183	34699	
1479	0	32786	32720	32621	32839	37047	34179	34685	
1480	0	32718	32540	32718	32674	37021	34181	34680	
1481	0	32748	32773	32691	32707	37018	34168	34664	
1482	0	32704	32775	32699	32691	37053	34145	34695	
1483	0	32762	32743	32635	32726	37031	34167	34701	
1484	0	32764	32547	32647	32773	37040	34183	34683	
1485	0	32714	32548	32671	32755	37019	34168	34702	
1486	0	32798	32747	32550	32666	37037	34171	34693	
1487	0	32770	32749	32605	32775	37031	34183	34679	
1488	0	32713	32809	32622	32752	37049	34177	34675	
1489	0	32775	32757	32530	32727	37044	34183	34675	
1490	0	32775	32731	32703	32621	37012	34197	34663	
1491	0	32712	32685	32702	32775	37012	34199	34687	
1492	0	32788	32733	32472	32706	37019	34173	34675	
1493	0	32704	32743	32673	32743	37023	34171	34687	
1494	0	32824	32699	32720	32694	37027	34179	34679	
1495	0	32816	32572	32479	32694	37024	34194	34695	
1496	0	32788	32725	32556	32775	37006	34191	34715	
1497	0	32616	32710	32647	32896	37042	34179	34691	
1498	0	32566	32582	32940	32926	37039	34182	34677	
1499	0	32850	32789	32724	32586	37027	34189	34661	
1500	0	32811	32720	32577	32710	37010	34182	34665	
1501	0	32774	32681	32775	32791	37025	34183	34695	
1502	0	32775	32748	32531	32745	37030	34187	34690	
1503	0	32729	32638	32583	32749	37037	34211	34677	
1504	0	32732	32533	32640	32775	37007	34201	34659	
1505	0	32809	32755	32704	32755	37051	34186	34695	
1506	0	32729	32694	32711	32704	37051	34181	34710	
1507	0	32746	32680	32613	32710	37019	34189	34706	
1508	0	32756	32718	32607	32766	37043	34182	34705	
1509	0	32800	32786	32551	32802	37063	34183	34716	
1510	0	32710	32661	32491	32665	37031	34213	34695	
1511	0	32752	32583	32636	32775	37035	34223	34691	
1512	0	32760	32709	32715	32802	37047	34178	34695	
1513	0	32797	32738	32672	32820	37037	34156	34695	
1514	0	32772	32775	32671	32673	37039	34149	34664	
1515	0	32756	32759	32748	32621	37028	34156	34665	
1516	0	32775	32718	32691	32641	37028	34156	34674	
1517	0	32824	32726	32734	32797	37035	34174	34665	
1518	0	32762	32523	32599	32819	37030	34175	34675	
1519	0	32820	32747	32588	32646	37019	34157	34695	
1520	0	32754	32607	32574	32672	36999	34183	34672	
1521	0	32800	32695	32655	32747	37033	34199	34683	
1522	0	32770	32751	32717	32811	37037	34217	34666	
1523	0	32741	32639	32566	32818	37031	34229	34692	
1524	0	32739	32711	32604	32820	37015	34243	34689	
1525	0	32804	32770	32621	32770	37039	34237	34693	
1526	0	32773	32546	32656	32699	37008	34227	34695	
1527	0	32763	32681	32582	32641	36997	34216	34694	
1528	0	32720	32745	32686	32655	37028	34215	34694	
1529	0	32768	32647	32530	32683	37071	34198	34710	
1530	0	32743	32659	32647	32632	37051	34201	34704	
1531	0	32756	32715	32679	32809	37040	34183	34702	
1532	0	32773	32745	32635	32746	37006	34178	34685	
1533	0	32738	32767	32641	32758	37058	34183	34677	
1534	0	32700	32548	32621	32653	37031	34166	34683	
1535	0	32736	32692	32612	32770	37087	34151	34679	
1536	0	32760	32741	32615	32715	37060	34168	34695	
1537	0	32775	32775	32719	32606	37029	34175	34726	
1538	0	32726	32775	32607	32791	37029	34170	34717	
1539	0	32768	32747	32643	32775	37030	34183	34704	
1540	0	32775	32664	32691	32765	37059	34179	34695	
1541	0	32749	32766	32695	32815	37033	34183	34684	
1542	0	32772	32754	32640	32803	37056	34181	34684	
1543	0	32794	32609	32532	32847	37033	34183	34673	
1544	0	32710	32723	32621	32706	37035	34212	34662	
1545	0	32775	32756	32483	32775	37051	34199	34685	
1546	0	32748	32611	32734	32647	37017	34197	34691	
1547	0	32784	32706	32546	32775	37030	34195	34700	
1548	0	32744	32811	32656	32823	36999	34193	34695	
1549	0	32724	32614	32775	32756	37016	34199	34692	
1550	0	32768	32673	32639	32715	37019	34207	34690	
1551	0	32710	32705	32767	32695	37007	34197	34695	
1552	0	32684	32623	32597	32755	36999	34189	34691	
1553	0	32914	32722	32647	32768	37006	34212	34710	
1554	0	32758	32713	32751	32754	37025	34194	34701	
1555	0	32794	32642	32605	32745	36999	34191	34707	
1556	0	32749	32775	32633	32704	37021	34199	34679	
1557	0	32768	32803	32647	32723	37031	34171	34704	
1558	0	32740	32711	32738	32787	37055	34171	34711	
1559	0	32816	32560	32690	32690	37031	34197	34695	
1560	0	32800	32775	32663	32739	37028	34191	34711	
1561	0	32763	32745	32696	32734	37043	34183	34711	
1562	0	32746	32663	32598	32619	37026	34175	34701	
1563	0	32784	32690	32679	32666	37044	34166	34695	
1564	0	32745	32735	32559	32801	37021	34163	34703	
1565	0	32740	32761	32703	32609	37024	34183	34695	
1566	0	32772	32743	32615	32726	37037	34191	34692	
1567	0	32732	32719	32728	32677	37026	34185	34705	
1568	0	32762	32735	32615	32702	37056	34193	34695	
1569	0	32740	32762	32613	32617	37043	34183	34700	
1570	0	32723	32530	32631	32792	37010	34181	34700	
1571	0	32741	32811	32634	32734	37030	34202	34690	
1572	0	32762	32612	32763	32734	37051	34179	34685	
1573	0	32708	32637	32559	32676	37053	34195	34689	
1574	0	32792	32637	32751	32767	36995	34167	34707	
1575	0	32808	32573	32674	32595	37030	34178	34695	
1576	0	32799	32594	32609	32662	36999	34169	34719	
1577	0	32879	32768	32511	32660	37019	34199	34703	
1578	0	32833	32615	32717	32646	37031	34189	34692	
1579	0	32672	32846	32723	32850	37021	34199	34683	
1580	0	32536	32795	32726	32831	37026	34167	34677	
1581	0	32834	32559	32467	32754	37031	34148	34699	
1582	0	32846	32550	32583	32572	37027	34165	34703	
1583	0	32775	32718	32676	32678	37042	34171	34713	
1584	0	32775	32672	32600	32722	37030	34183	34702	
1585	0	32745	32568	32574	32775	36999	34204	34679	
1586	0	32784	32757	32475	32806	37024	34212	34687	
1587	0	32810	32767	32655	32641	37031	34181	34679	
1588	0	32826	32609	32587	32798	36999	34158	34693	
1589	0	32744	32667	32760	32807	37034	34162	34685	
1590	0	32770	32610	32636	32582	37036	34178	34716	
1591	0	32706	32617	32634	32749	37036	34219	34731	
1592	0	32722	32758	32719	32722	37031	34214	34733	
1593	0	32763	32748	32721	32845	36998	34171	34719	
1594	0	32731	32711	32684	32815	37014	34141	34711	
1595	0	32742	32769	32613	32743	37071	34137	34689	
1596	0	32788	32590	32733	32801	37031	34155	34677	
1597	0	32724	32598	32663	32717	37006	34165	34665	
1598	0	32838	32674	32723	32793	37051	34162	34689	
1599	0	32818	32677	32711	32675	37024	34163	34706	
1600	0	32726	32739	32688	32721	37004	34151	34702	
1601	0	32823	32739	32540	32837	36998	34169	34695	
1602	0	32775	32546	32667	32748	36999	34170	34713	
1603	0	32738	32759	32767	32821	37033	34197	34707	
1604	0	32707	32802	32715	32864	37015	34183	34702	
1605	0	32741	32756	32559	32773	36999	34199	34695	
1606	0	32749	32775	32773	32825	37039	34183	34685	
1607	0	32723	32807	32555	32801	37015	34183	34713	
1608	0	32744	32750	32758	32763	37039	34183	34695	
1609	0	32728	32616	32647	32819	37033	34175	34706	
1610	0	32747	32719	32765	32678	37033	34167	34710	
1611	0	32820	32743	32740	32797	37058	34189	34695	
1612	0	32708	32542	32639	32764	36999	34177	34691	
1613	0	32728	32739	32723	32749	37039	34170	34702	
1614	0	32851	32662	32590	32756	37031	34159	34696	
1615	0	32785	32578	32763	32803	37015	34160	34695	
1616	0	32798	32647	32631	32769	37019	34153	34692	
1617	0	32781	32775	32458	32760	37048	34136	34671	
1618	0	32797	32739	32472	32612	37052	34151	34681	
1619	0	32751	32688	32543	32823	37011	34156	34706	
1620	0	32742	32587	32467	32664	37024	34179	34711	
1621	0	32775	32768	32697	32796	37026	34151	34727	
1622	0	32726	32626	32678	32676	37058	34183	34704	
1623	0	32764	32742	32688	32791	37027	34183	34694	
1624	0	32775	32817	32679	32825	37022	34189	34707	
1625	0	32771	32706	32637	32763	37029	34182	34694	
1626	0	32824	32575	32558	32803	37024	34183	34687	
1627	0	32801	32663	32717	32633	37065	34190	34680	
1628	0	32775	32702	32794	32815	37010	34192	34681	
1629	0	32752	32717	32751	32756	37016	34183	34695	
1630	0	32775	32706	32539	32805	37037	34166	34708	
1631	0	32834	32727	32563	32734	37030	34176	34695	
1632	0	32716	32740	32722	32775	37018	34175	34715	
1633	0	32756	32550	32745	32694	37037	34176	34695	
1634	0	32713	32803	32541	32825	37045	34183	34691	
1635	0	32796	32711	32478	32793	37032	34168	34704	
1636	0	32736	32633	32767	32830	36999	34163	34695	
1637	0	32742	32736	32647	32647	37041	34176	34695	
1638	0	32789	32723	32762	32775	37047	34170	34703	
1639	0	32791	32694	32772	32668	37037	34183	34703	
1640	0	32775	32699	32676	32775	37039	34181	34710	
1641	0	32804	32775	32546	32695	37067	34199	34691	
1642	0	32751	32622	32711	32775	37045	34168	34706	
1643	0	32805	32703	32691	32848	37026	34159	34694	
1644	0	32723	32743	32567	32620	37016	34163	34688	
1645	0	32784	32799	32534	32743	37031	34165	34695	
1646	0	32722	32690	32583	32635	37015	34178	34717	
1647	0	32873	32748	32773	32766	37051	34183	34695	
1648	0	32716	32538	32716	32749	37053	34176	34695	
1649	0	32752	32568	32637	32775	36999	34164	34713	
1650	0	32761	32617	32575	32732	37026	34178	34695	
1651	0	32713	32602	32771	32775	37030	34171	34693	
1652	0	32734	32637	32551	32711	37051	34178	34706	
1653	0	32772	32704	32493	32787	37051	34178	34686	
1654	0	32712	32695	32659	32653	37042	34183	34710	
1655	0	32806	32795	32638	32775	37036	34179	34695	
1656	0	32706	32699	32570	32692	37055	34174	34717	
1657	0	32802	32734	32766	32741	37015	34176	34710	
1658	0	32716	32538	32751	32702	37045	34177	34704	
1659	0	32790	32687	32553	32771	37022	34168	34729	
1660	0	32804	32741	32674	32745	37047	34171	34695	
1661	0	32786	32754	32667	32631	37028	34161	34717	
1662	0	32600	32854	32916	32903	37019	34182	34695	
1663	0	32754	32666	32679	32684	37059	34156	34703	
1664	0	32830	32747	32445	32736	37023	34175	34695	
1665	0	32809	32685	32594	32678	37063	34191	34678	
1666	0	32788	32766	32631	32764	37070	34168	34695	
1667	0	32738	32657	32670	32855	37058	34168	34694	
1668	0	32706	32503	32533	32775	37043	34183	34685	
1669	0	32805	32625	32680	32736	37039	34183	34711	
1670	0	32775	32809	32710	32789	37047	34173	34704	
1671	0	32748	32566	32535	32784	37031	34169	34694	
1672	0	32832	32730	32551	32558	37013	34177	34711	
1673	0	32744	32663	32607	32708	37042	34169	34726	
1674	0	32816	32727	32787	32742	37018	34218	34707	
1675	0	32818	32740	32570	32735	36999	34203	34703	
1676	0	32812	32546	32583	32738	37018	34175	34715	
1677	0	32738	32691	32523	32799	37042	34153	34711	
1678	0	32738	32752	32603	32765	37028	34142	34695	
1679	0	32814	32547	32658	32765	37053	34164	34711	
1680	0	32760	32610	32561	32818	37029	34167	34695	
1681	0	32750	32775	32701	32742	37051	34169	34691	
1682	0	32775	32800	32703	32833	37050	34156	34687	
1683	0	32752	32734	32594	32756	37033	34146	34690	
1684	0	32775	32765	32540	32768	37020	34163	34704	
1685	0	32775	32528	32675	32701	37014	34171	34694	
1686	0	32775	32633	32711	32768	36999	34183	34694	
1687	0	32754	32621	32687	32747	37040	34199	34687	
1688	0	32732	32539	32711	32719	37032	34193	34695	
1689	0	32773	32652	32711	32647	37029	34182	34703	
1690	0	32755	32720	32775	32775	37051	34212	34687	
1691	0	32760	32647	32723	32727	36999	34181	34708	
1692	0	32792	32642	32647	32641	37051	34179	34711	
1693	0	32736	32566	32557	32804	37033	34183	34703	
1694	0	32769	32640	32722	32711	37035	34177	34718	
1695	0	32836	32621	32737	32823	37050	34171	34695	
1696	0	32793	32727	32773	32828	37041	34166	34695	
1697	0	32771	32775	32509	32803	37044	34153	34693	
1698	0	32733	32738	32711	32719	37019	34178	34695	
1699	0	32759	32663	32643	32631	37025	34150	34711	
1700	0	32818	32726	32707	32721	37015	34145	34671	
1701	0	32745	32771	32698	32775	37042	34160	34687	
1702	0	32744	32765	32647	32710	37053	34169	34710	
1703	0	32780	32694	32644	32756	37010	34183	34695	
1704	0	32804	32540	32515	32722	37031	34162	34717	
1705	0	32720	32546	32504	32855	37027	34160	34699	
1706	0	32772	32631	32576	32629	37039	34183	34703	
1707	0	32724	32639	32613	32803	37019	34171	34692	
1708	0	32764	32662	32725	32791	37015	34176	34685	
1709	0	32775	32707	32645	32809	37035	34163	34695	
1710	0	32736	32599	32624	32647	37037	34180	34677	
1711	0	32813	32551	32484	32658	37010	34183	34688	
1712	0	32804	32759	32710	32691	37042	34188	34711	
1713	0	32722	32613	32663	32734	37032	34166	34720	
1714	0	32802	32545	32647	32789	37046	34171	34713	
1715	0	32717	32724	32658	32752	36990	34163	34722	
1716	0	32725	32809	32767	32710	37023	34159	34698	
1717	0	32784	32647	32667	32807	37029	34171	34721	
1718	0	32767	32614	32682	32670	37039	34162	34692	
1719	0	32744	32775	32533	32711	37043	34169	34681	
1720	0	32758	32659	32697	32758	37055	34177	34688	
1721	0	32741	32743	32595	32739	37043	34196	34688	
1722	0	32784	32680	32567	32635	37031	34174	34695	
1723	0	32765	32623	32680	32702	37015	34171	34706	
1724	0	32828	32662	32631	32694	37028	34162	34704	
1725	0	32796	32669	32591	32647	37063	34162	34704	
1726	0	32775	32695	32688	32770	37048	34181	34706	
1727	0	32754	32658	32733	32813	37042	34166	34710	
1728	0	32688	32672	32677	32647	37062	34162	34694	
1729	0	32758	32477	32711	32679	37062	34176	34694	
1730	0	32773	32763	32644	32808	37047	34166	34695	
1731	0	32734	32734	32560	32667	37036	34171	34695	
1732	0	32762	32754	32631	32806	37063	34159	34690	
1733	0	32736	32621	32707	32603	37046	34169	34701	
1734	0	32757	32711	32498	32835	37055	34178	34694	
1735	0	32732	32748	32630	32647	37029	34172	34710	
1736	0	32748	32739	32726	32718	37070	34189	34686	
1737	0	32754	32706	32685	32830	37037	34176	34713	
1738	0	32733	32694	32698	32675	37019	34169	34695	
1739	0	32798	32771	32642	32751	37035	34182	34685	
1740	0	32775	32735	32528	32677	37016	34166	34711	
1741	0	32797	32612	32569	32692	37043	34171	34707	
1742	0	32751	32543	32508	32711	37031	34179	34690	
1743	0	32811	32615	32509	32696	37028	34168	34703	
1744	0	32824	32751	32491	32571	37039	34173	34706	
1745	0	32803	32688	32485	32659	37013	34162	34723	
1746	0	32500	32769	32767	33017	36987	34164	34694	
1747	0	32740	32535	32739	32873	37026	34151	34702	
1748	0	32843	32771	32516	32711	37041	34175	34673	
1749	0	32814	32711	32603	32713	37044	34178	34704	
1750	0	32732	32794	32603	32828	37051	34183	34690	
1751	0	32764	32551	32645	32803	37042	34169	34708	
1752	0	32766	32727	32672	32687	37007	34200	34688	
1753	0	32775	32583	32642	32759	37031	34183	34695	
1754	0	32739	32555	32775	32685	37020	34181	34703	
1755	0	32758	32753	32611	32715	37027	34153	34701	
1756	0	32726	32578	32710	32751	37039	34150	34691	
1757	0	32761	32775	32652	32788	36999	34166	34722	
1758	0	32742	32643	32659	32754	37027	34183	34714	
1759	0	32761	32718	32709	32684	37049	34192	34729	
1760	0	32804	32744	32644	32775	36999	34169	34710	
1761	0	32724	32563	32683	32739	37031	34131	34719	
1762	0	32835	32743	32738	32775	37010	34149	34687	
1763	0	32794	32683	32581	32747	37034	34165	34704	
1764	0	32796	32751	32726	32797	37036	34181	34694	
1765	0	32814	32711	32557	32870	37029	34178	34695	
1766	0	32792	32754	32711	32729	37035	34159	34703	
1767	0	32756	32819	32620	32775	37031	34181	34695	
1768	0	32742	32615	32637	32703	37010	34152	34690	
1769	0	32751	32656	32678	32775	37019	34162	34707	
1770	0	32740	32639	32592	32716	37033	34183	34707	
1771	0	32754	32582	32660	32655	37039	34183	34713	
1772	0	32770	32789	32598	32782	37005	34191	34704	
1773	0	32738	32652	32717	32729	37047	34183	34700	
1774	0	32679	32818	32679	32876	37030	34194	34695	
1775	0	32756	32484	32555	32802	37027	34192	34711	
1776	0	32800	32766	32565	32674	37023	34175	34713	
1777	0	32740	32728	32623	32698	37020	34155	34726	
1778	0	32772	32465	32599	32610	37031	34153	34738	
1779	0	32743	32608	32685	32738	37039	34168	34713	
1780	0	32832	32639	32719	32567	37011	34173	34717	
1781	0	32722	32587	32646	32569	37015	34176	34735	
1782	0	32698	32698	32703	32954	37047	34192	34695	
1783	0	32759	32687	32852	32709	37042	34184	34726	
1784	0	32818	32386	32689	32322	37069	34199	34695	
1785	0	32775	32668	32695	32803	37043	34221	34694	
1786	0	32749	33263	32496	33020	37014	34230	34704	
1787	0	32758	32704	32775	33050	37029	34202	34726	
1788	0	32713	32898	32610	32835	37019	34176	34745	
1789	0	32750	32676	32671	32259	37032	34169	34731	
1790	0	32784	32671	32735	32811	37054	34153	34734	
1791	0	32808	32631	32533	32793	37034	34183	34713	
1792	0	32588	32879	32473	33202	37014	34193	34720	
1793	0	32824	32845	32812	32716	37046	34192	34731	
1794	0	32856	32758	32762	32823	37015	34183	34729	
1795	0	32880	32986	32679	33014	37011	34181	34704	
1796	0	32786	32740	32690	32810	36999	34177	34697	
1797	0	32656	32775	32606	32766	36990	34149	34719	
1798	0	32834	32731	32507	32955	36983	34145	34722	
1799	0	32730	32934	32542	32917	36994	34147	34744	
1800	0	32960	32485	32583	32739	36984	34183	34749	
1801	0	32724	32823	32583	32535	37012	34214	34738	
1802	0	32674	32839	32762	32896	37008	34215	34754	
1803	0	32967	32621	32762	32591	36995	34199	34746	
1804	0	32739	32563	32788	32612	36995	34215	34748	
1805	0	32818	32815	32600	33093	36976	34201	34745	
1806	0	32771	32529	32731	33159	37021	34199	34758	
1807	0	32694	32967	32667	33490	36989	34194	34763	
1808	0	33048	32736	32613	32511	36987	34189	34735	
1809	0	32664	32596	32553	32635	36999	34199	34745	
1810	0	32784	32775	32591	32734	37024	34221	34738	
1811	0	32686	32583	32679	32564	36992	34207	34733	
1812	0	32818	32559	32517	32451	36993	34193	34739	
1813	0	32812	32668	32646	32577	36992	34159	34763	
1814	0	32660	32837	32610	32720	36999	34156	34754	
1815	0	32726	32632	32639	32841	36999	34183	34740	
1816	0	32700	32727	32506	32824	36991	34181	34720	
1817	0	32720	32757	32646	32774	36998	34176	34722	
1818	0	32697	32841	32664	32770	37051	34194	34729	
1819	0	32726	32555	32746	32664	37011	34160	34726	
1820	0	32808	32699	32803	32711	37014	34147	34722	
1821	0	32780	32611	32671	32804	37015	34149	34721	
1822	0	32736	32727	32481	32677	37026	34168	34742	
1823	0	32854	32577	32583	32784	37007	34168	34733	
1824	0	32773	32731	32714	32690	37018	34167	34750	
1825	0	32706	32683	32772	32787	36999	34204	34743	
1826	0	32716	32739	32668	32710	36999	34176	34739	
1827	0	32728	32660	32541	32752	36999	34183	34750	
1828	0	32688	32751	32775	32795	36999	34183	34717	
1829	0	32828	32739	32596	32685	36989	34171	34743	
1830	0	32825	32834	32626	32673	36990	34166	34744	
1831	0	32818	32807	32692	32587	36999	34153	34750	
1832	0	32708	32784	32895	32903	36982	34153	34738	
1833	0	32576	32642	32767	32885	36999	34156	34742	
1834	0	32886	32562	32575	32647	37010	34183	34752	
1835	0	32864	32764	32624	32679	37023	34197	34747	
1836	0	32765	32575	32527	32759	37026	34199	34727	
1837	0	32755	32617	32557	32727	37026	34204	34733	
1838	0	32780	32669	32719	32769	36993	34223	34691	
1839	0	32841	32611	32579	32640	36999	34213	34716	
1840	0	32722	32723	32551	32807	37024	34237	34723	
1841	0	32834	32679	32713	32738	37051	34201	34725	
1842	0	32728	32687	32664	32787	36999	34199	34720	
1843	0	32716	32789	32539	32688	37010	34209	34723	
1844	0	32793	32750	32540	32761	37059	34207	34759	
1845	0	32775	32595	32691	32807	37042	34239	34763	
1846	0	32764	32669	32706	32809	37023	34199	34751	
1847	0	32800	32602	32529	32772	37010	34155	34736	
1848	0	32742	32518	32637	32736	37056	34119	34702	
1849	0	32761	32750	32697	32817	37053	34118	34711	
1850	0	32795	32762	32583	32711	37045	34131	34719	
1851	0	32736	32486	32598	32811	36999	34141	34726	
1852	0	32770	32660	32574	32783	36999	34127	34727	
1853	0	32766	32684	32696	32773	36999	34138	34715	
1854	0	32870	32753	32553	32700	37037	34157	34738	
1855	0	32743	32699	32478	32837	37020	34179	34734	
1856	0	32792	32698	32679	32719	37026	34205	34723	
1857	0	32732	32553	32514	32711	36999	34197	34725	
1858	0	32760	32711	32490	32711	37027	34210	34728	
1859	0	32816	32674	32743	32775	37014	34219	34722	
1860	0	32800	32775	32711	32656	36999	34224	34721	
1861	0	32760	32688	32599	32745	37021	34217	34735	
1862	0	32728	32838	32625	32744	36986	34215	34737	
1863	0	32775	32658	32678	32787	37015	34203	34735	
1864	0	32761	32739	32617	32662	37012	34189	34723	
1865	0	32790	32715	32521	32775	37018	34183	34739	
1866	0	32722	32562	32541	32723	37018	34179	34722	
1867	0	32818	32681	32747	32794	37044	34173	34706	
1868	0	32832	32687	32644	32827	36986	34173	34714	
1869	0	32780	32723	32663	32775	37014	34153	34706	
1870	0	32812	32736	32655	32803	37017	34159	34695	
1871	0	32814	32620	32651	32753	37031	34149	34706	
1872	0	32750	32775	32745	32775	37024	34157	34695	
1873	0	32817	32698	32728	32791	37014	34175	34735	
1874	0	32713	32791	32614	32732	37059	34176	34715	
1875	0	32804	32626	32715	32803	37031	34171	34695	
1876	0	32820	32775	32775	32685	37015	34163	34718	
1877	0	32710	32546	32717	32755	36999	34183	34706	
1878	0	32806	32711	32615	32757	37015	34183	34702	
1879	0	32820	32758	32627	32590	37033	34189	34700	
1880	0	32728	32579	32597	32733	37031	34199	34695	
1881	0	32784	32759	32562	32706	37032	34183	34711	
1882	0	32775	32543	32647	32687	37031	34173	34699	
1883	0	32788	32797	32582	32743	37042	34188	34715	
1884	0	32740	32730	32659	32775	37019	34190	34710	
1885	0	32768	32748	32749	32759	37010	34181	34719	
1886	0	32762	32803	32750	32850	36999	34197	34713	
1887	0	32812	32758	32592	32748	37008	34171	34740	
1888	0	32769	32830	32667	32751	36999	34194	34720	
1889	0	32710	32855	32730	32769	37023	34178	34735	
1890	0	32840	32692	32647	32826	37030	34183	34732	
1891	0	32731	32811	32669	32757	37037	34192	34720	
1892	0	32720	32803	32647	32662	37032	34195	34725	
1893	0	32716	32563	32616	32702	37008	34191	34710	
1894	0	32816	32730	32674	32694	37011	34176	34707	
1895	0	32863	32727	32679	32815	37020	34192	34692	
1896	0	32758	32859	32585	32811	37019	34178	34706	
1897	0	32772	32605	32647	32672	37037	34156	34713	
1898	0	32738	32721	32583	32747	37054	34179	34723	
1899	0	32822	32711	32687	32797	37037	34202	34695	
1900	0	32880	32617	32631	32684	37023	34192	34702	
1901	0	32762	32757	32668	32827	37008	34183	34690	
1902	0	32773	32626	32482	32828	37040	34207	34688	
1903	0	32796	32602	32656	32771	37004	34183	34706	
1904	0	32699	32684	32635	32642	37017	34201	34711	
1905	0	32916	32761	32509	32711	37040	34216	34695	
1906	0	32682	32813	32562	32642	37042	34214	34684	
1907	0	32713	32699	32496	32615	37026	34199	34695	
1908	0	32793	32707	32630	32672	37023	34205	34695	
1909	0	32880	32754	32735	32759	37012	34206	34711	
1910	0	32745	32787	32676	32826	36997	34197	34717	
1911	0	32715	32728	32516	32748	37026	34192	34695	
1912	0	32838	32555	32498	32541	37008	34183	34716	
1913	0	32760	32775	32775	32748	37014	34183	34713	
1914	0	32583	32839	32890	32957	37037	34187	34720	
1915	0	32572	32763	32734	32890	37016	34178	34722	
1916	0	32837	32786	32495	32842	36996	34188	34720	
1917	0	32881	32567	32555	32646	37030	34205	34728	
1918	0	32956	32757	32702	32732	36996	34213	34739	
1919	0	32792	32687	32623	32770	36999	34233	34735	
1920	0	32521	32511	32567	32827	36992	34221	34729	
1921	0	32836	32519	32839	32811	36978	34226	34747	
1922	0	32772	32542	32534	32698	36999	34209	34755	
1923	0	32726	32671	32576	32628	36991	34183	34755	
1924	0	32768	32667	32754	32788	36994	34176	34743	
1925	0	32808	32775	32583	32814	36999	34173	34755	
1926	0	32755	32749	32711	32757	37031	34205	34754	
1927	0	32712	32617	32583	32739	37023	34227	34766	
1928	0	32803	32536	32701	32768	37015	34192	34781	
1929	0	32862	32818	33021	32787	37007	34155	34788	
1930	0	32412	32577	32070	32914	37010	34159	34779	
1931	0	32867	32587	32923	32638	37014	34138	34752	
1932	0	32996	32775	32951	32847	36983	34173	34716	
1933	0	32792	32874	32122	33103	37010	34183	34691	
1934	0	32796	32667	32897	32533	37008	34193	34726	
1935	0	32596	32943	32815	33082	36987	34146	34745	
1936	0	32820	32583	32646	32642	36995	34156	34777	
1937	0	32702	32571	32687	32759	37029	34175	34815	
1938	0	32914	32750	33238	32839	37005	34195	34803	
1939	0	32282	32721	31659	32845	36950	34216	34776	
1940	0	33178	32704	33168	32933	36914	34243	34784	
1941	0	32041	31918	31987	30888	36911	34199	34781	
1942	0	32862	32988	32802	33647	36962	34146	34758	
1943	0	32942	32431	32910	32814	36958	34147	34758	
1944	0	32922	32633	32603	32830	37033	34129	34820	
1945	0	32872	32475	32475	32702	37006	34152	34819	
1946	0	32680	32632	32692	32796	37017	34217	34823	
1947	0	32772	32770	32538	32870	37016	34219	34869	
1948	0	33116	32720	33105	32837	36990	34194	34864	
1949	0	32576	32928	31616	32916	36943	34183	34823	
1950	0	32214	32610	32382	32667	36902	34149	34805	
1951	0	32754	32647	33065	32820	36969	34105	34783	
1952	0	32821	32263	32551	32295	36951	34064	34790	
1953	0	32537	34242	32664	32659	36990	34069	34803	
1954	0	32726	32687	32717	32789	36980	34111	34836	
1955	0	32889	32514	32743	32743	36990	34171	34865	
1956	0	32263	32751	32391	32748	36947	34183	34851	
1957	0	32775	32645	33159	32660	36963	34197	34875	
1958	0	32888	32950	32202	33235	36967	34177	34834	
1959	0	32746	32567	32272	33058	36917	34135	34845	
1960	0	32654	32501	33108	32474	36950	34132	34823	
1961	0	32708	32298	32853	32933	36934	34147	34823	
1962	0	32574	32786	32462	33446	36950	34153	34855	
1963	0	32728	32738	32520	32720	36966	34147	34861	
1964	0	32732	32731	32720	33133	36966	34175	34863	
1965	0	32832	32636	32947	32407	36979	34162	34924	
1966	0	32881	32671	32514	32745	36970	34183	34919	
1967	0	32454	32696	32043	32474	36923	34217	34887	
1968	0	32658	32728	33101	32678	36904	34223	34868	
1969	0	32815	32843	32866	33026	36935	34170	34857	
1970	0	32809	32765	32690	32866	36943	34134	34839	
1971	0	32694	32463	32641	31954	36960	34112	34867	
1972	0	32754	32343	32703	32791	36940	34119	34875	
1973	0	32769	32754	32807	32603	36947	34156	34875	
1974	0	32746	32735	32646	32664	36990	34214	34886	
1975	0	32817	32769	32763	32747	36999	34246	34883	
1976	0	32526	32756	32509	32711	36950	34205	34872	
1977	0	32768	32751	32662	33120	36909	34183	34850	
1978	0	32844	32717	32542	32590	36959	34151	34838	
1979	0	32773	32760	32747	32804	36961	34128	34853	
1980	0	32770	32623	32769	32717	36955	34163	34839	
1981	0	32726	32709	32538	32743	36926	34146	34849	
1982	0	32587	32668	32741	32677	36945	34164	34855	
1983	0	32790	32727	32642	32733	36991	34156	34849	
1984	0	32738	32495	32583	32715	36999	34163	34804	
1985	0	32733	32591	32710	32700	36982	34146	34803	
1986	0	32741	32759	32717	32775	37005	34162	34793	
1987	0	32802	32791	32666	32806	36973	34164	34814	
1988	0	32732	32711	32608	32719	36958	34166	34787	
1989	0	32750	32720	32775	32775	36978	34139	34770	
1990	0	32773	32567	32711	32702	37015	34151	34777	
1991	0	32822	32687	32687	32774	36976	34166	34790	
1992	0	32764	32525	32754	32731	36987	34181	34788	
1993	0	32784	32584	32705	32699	36990	34155	34806	
1994	0	32948	32728	32391	32723	36999	34167	34790	
1995	0	32751	32699	32541	32882	37023	34204	34798	
1996	0	32462	32887	32931	32903	37022	34200	34794	
1997	0	32736	32449	32617	32668	37027	34219	34770	
1998	0	32838	32629	32630	32538	37023	34213	34770	
1999	0	33032	32738	32560	32683	37027	34196	34759	
2000	0	32676	32634	32721	32711	37045	34195	34770	
2001	0	32746	32525	32802	32658	37010	34170	34776	
2002	0	32769	32786	32487	32814	36983	34160	34758	
2003	0	32768	32729	32847	32550	37014	34152	34742	
2004	0	32762	32721	32599	32690	37020	34105	34738	
2005	0	32774	32695	32663	32877	36999	34110	34729	
2006	0	32723	32512	32619	32439	36999	34111	34754	
2007	0	32806	32734	32658	32560	37014	34151	34781	
2008	0	32725	32708	32628	32742	37037	34181	34768	
2009	0	32661	32738	32613	32775	36989	34183	34754	
2010	0	32694	32579	32561	32510	37005	34156	34759	
2011	0	32944	32647	32725	32794	37022	34150	34743	
2012	0	32766	32817	32526	32775	37026	34151	34733	
2013	0	32690	32825	32580	32727	37024	34183	34742	
2014	0	32770	32802	32736	32711	37008	34205	34720	
2015	0	32613	32868	32315	32851	36998	34183	34707	
2016	0	32852	32754	32967	32885	36999	34179	34707	
2017	0	32820	32819	32891	32817	37014	34179	34726	
2018	0	32870	32647	32602	32834	37014	34183	34726	
2019	0	33060	32813	32716	32719	37021	34199	34704	
2020	0	32854	32903	32596	33085	36998	34204	34711	
2021	0	32504	32791	32537	32865	37011	34204	34715	
2022	0	32711	32647	32749	32577	37031	34197	34735	
2023	0	32775	33033	32647	32766	37020	34189	34732	
2024	0	32769	32621	32391	32512	37024	34207	34735	
2025	0	32504	32608	32868	32666	37017	34207	34758	
2026	0	32990	32711	32741	32336	36995	34224	34741	
2027	0	32731	32694	32078	32926	36994	34213	34733	
2028	0	32912	32592	33005	32839	37025	34183	34745	
2029	0	32658	32666	32856	32839	37031	34166	34742	
2030	0	32854	32233	32571	32822	37054	34135	34738	
2031	0	33132	32637	32538	32646	36999	34161	34759	
2032	0	32668	32443	32709	32477	36984	34162	34811	
2033	0	32581	32683	32228	32773	36939	34183	34808	
2034	0	32740	34044	32123	32959	36962	34173	34782	
2035	0	32794	32624	32870	32743	36994	34151	34776	
2036	0	33000	32829	32593	32487	36999	34139	34759	
2037	0	32775	32764	32594	33034	36977	34148	34755	
2038	0	32900	32560	32738	32675	37007	34177	34799	
2039	0	33144	32914	32891	32823	36999	34212	34804	
2040	0	32916	32519	32247	32644	36995	34217	34775	
2041	0	32356	32614	33058	32827	37005	34217	34778	
2042	0	33159	32861	32577	32848	36999	34215	34754	
2043	0	33211	32519	32275	32571	36975	34178	34735	
2044	0	33112	32745	33015	33055	36947	34141	34742	
2045	0	32660	33706	32421	33030	36978	34131	34759	
2046	0	32592	32417	32846	32855	36976	34156	34786	
2047	0	32843	32552	32880	32773	36978	34192	34783	
2048	0	32717	32558	32167	32808	36961	34213	34788	
2049	0	32576	32774	32734	32826	37006	34217	34808	
2050	0	32892	32774	33178	32711	36992	34183	34794	
2051	0	32382	32284	31960	33082	36960	34190	34786	
2052	0	32574	32284	32722	33213	36964	34183	34799	
2053	0	32888	32212	32874	33877	36962	34197	34817	
2054	0	32728	32450	32603	32645	36987	34183	34838	
2055	0	32720	32663	32935	32661	36952	34199	34822	
2056	0	32674	32662	32647	32807	36934	34199	34823	
2057	0	32480	32746	32187	33401	36935	34197	34818	
2058	0	33225	32530	32725	32377	36954	34174	34859	
2059	0	32656	32743	32868	33001	36971	34183	34823	
2060	0	32864	32091	32499	32588	36992	34171	34794	
2061	0	32669	32967	32363	32859	36999	34173	34795	
2062	0	32701	32652	32811	33811	37011	34176	34823	
2063	0	32892	32603	32677	32548	37005	34174	34857	
2064	0	32822	32696	32903	32647	36977	34192	34839	
2065	0	32600	32646	32307	32710	36968	34194	34823	
2066	0	32773	32438	33223	32526	36947	34183	34790	
2067	0	32503	32383	32251	32195	36961	34157	34779	
2068	0	32912	33041	32945	32551	36980	34151	34777	
2069	0	32992	33254	32645	32590	36978	34147	34809	
2070	0	32894	32463	32614	32860	36999	34176	34804	
2071	0	32824	32591	32542	32686	37018	34183	34807	
2072	0	33136	32627	32701	32795	36982	34183	34838	
2073	0	32891	32553	32700	32514	36995	34211	34823	
2074	0	32850	32751	32034	32459	36963	34203	34809	
2075	0	32819	32750	32794	32958	36958	34177	34794	
2076	0	32564	32460	32949	32839	36990	34173	34771	
2077	0	32424	32647	32775	32937	36935	34159	34771	
2078	0	33076	32647	32523	32487	36982	34151	34776	
2079	0	32826	32775	32644	32830	36971	34169	34803	
2080	0	32775	32808	32517	32646	36992	34212	34823	
2081	0	32700	32608	32519	32686	36971	34206	34823	
2082	0	32624	32698	32762	32671	36972	34207	34818	
2083	0	32798	32763	32560	32808	36947	34194	34823	
2084	0	32762	32887	32839	33036	36989	34167	34821	
2085	0	32852	32706	32698	32785	36942	34147	34813	
2086	0	32856	32663	32562	32677	36951	34159	34785	
2087	0	32788	32717	32728	32735	36956	34176	34800	
2088	0	32835	32661	32633	32750	36968	34209	34809	
2089	0	32707	32794	32681	32791	36963	34204	34820	
2090	0	32875	32575	32598	32757	36935	34201	34817	
2091	0	32644	32735	32635	32699	36963	34179	34796	
2092	0	32692	32760	32569	32731	36992	34139	34774	
2093	0	32734	32660	32635	32771	36943	34149	34758	
2094	0	32691	32750	32619	32707	36998	34161	34763	
2095	0	32784	32640	32551	32722	37008	34153	34758	
2096	0	32788	32763	32691	32571	37026	34179	34744	
2097	0	32792	32662	32562	32895	36987	34191	34763	
2098	0	32688	32825	32662	32804	36990	34199	34754	
2099	0	32902	32763	32678	32775	36978	34182	34731	
2100	0	32728	32722	32684	32743	37018	34183	34742	
2101	0	32850	32528	32711	32621	37023	34213	34717	
2102	0	32775	32673	32835	32747	37052	34213	34716	
2103	0	32730	32775	32729	32695	37014	34213	34736	
2104	0	32734	32662	32708	32772	37031	34214	34731	
2105	0	32730	32736	32530	32766	37036	34205	34759	
2106	0	32713	32674	32775	32640	36983	34194	34754	
2107	0	32825	32720	32703	32759	36959	34179	34754	
2108	0	32742	32682	32697	32666	36999	34158	34758	
2109	0	32740	32773	32551	32661	37012	34162	34779	
2110	0	32813	32763	32732	32703	37014	34156	34759	
2111	0	32830	32775	32660	32809	36974	34166	34732	
2112	0	32738	32700	32613	32825	36979	34166	34738	
2113	0	32766	32759	32598	32626	36986	34178	34733	
2114	0	32814	32621	32585	32599	37014	34162	34704	
2115	0	32652	32738	32662	32794	37032	34150	34715	
2116	0	32790	32727	32530	32842	37030	34151	34736	
2117	0	32858	32679	32445	32729	37021	34183	34754	
2118	0	32804	32698	32533	32670	37021	34163	34763	
2119	0	32732	32667	32662	32607	37012	34161	34771	
2120	0	32749	32647	32580	32775	36999	34175	34755	
2121	0	32770	32722	32662	32807	37047	34194	34728	
2122	0	32691	32751	32493	32711	37018	34189	34755	
2123	0	32754	32595	32671	32769	37042	34199	34723	
2124	0	32730	32663	32710	32786	37019	34191	34758	
2125	0	32760	32715	32736	32755	37046	34191	34743	
2126	0	32704	32635	32775	32798	37018	34173	34739	
2127	0	32775	32717	32662	32595	37028	34192	34717	
2128	0	32802	32731	32576	32609	37031	34183	34726	
2129	0	32643	32741	32704	32748	37012	34183	34725	
2130	0	32774	32647	32703	32757	36999	34157	34738	
2131	0	32688	32683	32761	32843	37010	34156	34728	
2132	0	32804	32703	32630	32653	37017	34149	34739	
2133	0	32760	32717	32647	32789	37022	34169	34738	
2134	0	32790	32663	32532	32983	36995	34164	34710	
2135	0	32814	32644	32621	32674	36999	34183	34704	
2136	0	32642	32792	32723	32806	37026	34181	34724	
2137	0	32672	32615	32486	32842	37007	34185	34728	
2138	0	32802	32666	32687	32836	37015	34196	34706	
2139	0	32707	32775	32630	32751	36963	34197	34690	
2140	0	32644	32498	32663	32706	36999	34185	34695	
2141	0	32952	32638	32703	32535	36999	34191	34695	
2142	0	32850	32739	32707	32919	37020	34208	34695	
2143	0	32756	32673	32662	32569	37027	34204	34695	
2144	0	32912	32722	32646	32746	37028	34207	34703	
2145	0	33029	32679	32487	32711	37017	34205	34693	
2146	0	32822	32684	32598	32707	36978	34198	34681	
2147	0	32764	32733	32550	32747	37007	34205	34713	
2148	0	32751	32795	32646	32730	36999	34201	34711	
2149	0	32775	32796	32677	32838	36982	34175	34695	
2150	0	32728	32472	32790	32883	37031	34197	34704	
2151	0	32804	32775	32630	32742	37057	34205	34723	
2152	0	32775	32615	32742	32806	37048	34164	34779	
2153	0	32854	32771	32613	32794	37021	34183	34700	
2154	0	32812	32658	32638	32539	36980	34183	34711	
2155	0	32858	32728	32555	32607	37068	34178	34771	
2156	0	32739	32640	32742	32599	36995	34199	34718	
2157	0	32664	32722	32767	32875	36969	34175	34692	
2158	0	32634	32697	32881	32867	36986	34215	34747	
2159	0	32866	32733	32611	32775	37056	34209	34743	
2160	0	32902	32666	32711	32764	37074	34191	34759	
2161	0	33037	32615	32647	32679	36998	34174	34736	
2162	0	32756	32607	32677	32724	36944	34192	34730	
2163	0	32734	32730	32680	32650	36947	34253	34759	
2164	0	32839	32690	32699	32630	37046	34242	34775	
2165	0	32838	32617	32671	32775	37046	34199	34781	
2166	0	32664	32683	32659	32810	36969	34183	34720	
2167	0	32824	32682	32468	32690	36932	34195	34695	
2168	0	32721	32746	32723	32771	36967	34228	34717	
2169	0	32696	32647	32647	32789	37062	34235	34773	
2170	0	32636	32720	32694	32821	37047	34238	34795	
2171	0	32812	32632	32579	32725	37017	34227	34751	
2172	0	32723	32615	32728	32832	36948	34221	34758	
2173	0	32828	32719	32741	32758	36991	34218	34735	
2174	0	32646	32710	32634	32729	37037	34207	34744	
2175	0	32840	32727	32623	32808	37046	34204	34722	
2176	0	32752	32599	32544	32750	37024	34179	34738	
2177	0	32738	32610	32708	32766	37030	34169	34733	
2178	0	32797	32769	32682	32614	36986	34173	34723	
2179	0	32748	32738	32725	32690	36999	34166	34738	
2180	0	32574	32674	32711	32743	36990	34179	34718	
2181	0	32862	32742	32711	32775	36992	34197	34687	
2182	0	32683	32635	32599	32680	37015	34195	34690	
2183	0	32953	32662	32730	32757	37044	34201	34681	
2184	0	32884	32541	32617	32775	37012	34195	34722	
2185	0	32894	32658	32742	32803	36999	34237	34710	
2186	0	32680	32767	32503	32775	37024	34230	34730	
2187	0	32611	32503	32628	32680	37021	34219	34732	
2188	0	32836	32787	32587	32757	37005	34215	34724	
2189	0	32748	32641	32745	32831	36982	34223	34733	
2190	0	32721	32576	32796	32804	37029	34237	34742	
2191	0	32713	32523	32700	32769	37055	34213	34754	
2192	0	32784	32613	32720	32775	36957	34216	34720	
2193	0	32847	32678	32652	32755	36973	34237	34714	
2194	0	32790	32540	32659	32814	37011	34197	34746	
2195	0	32738	32774	32786	32771	37053	34151	34711	
2196	0	32839	32635	32511	32717	36994	34149	34683	
2197	0	32749	32689	32571	32775	36958	34183	34704	
2198	0	32587	32611	32576	32707	36994	34200	34759	
2199	0	32818	32647	32662	32617	37014	34207	34790	
2200	0	32656	32811	32534	32775	36998	34225	34774	
2201	0	32773	32775	32653	32703	37022	34183	34749	
2202	0	32810	32715	32709	32653	37010	34191	34727	
2203	0	32730	32827	32763	32707	36979	34192	34722	
2204	0	32870	32654	32717	32775	37015	34183	34703	
2205	0	32744	32647	32694	32732	37010	34199	34706	
2206	0	32853	32717	32647	32751	36994	34191	34713	
2207	0	32793	32794	32775	32626	36999	34205	34733	
2208	0	33042	32539	32619	32725	37006	34206	34726	
2209	0	32620	32702	32662	32654	36999	34203	34717	
2210	0	32756	32759	32731	32667	37029	34203	34724	
2211	0	32754	32528	32691	32707	37025	34204	34735	
2212	0	32690	32575	32711	32745	37079	34195	34754	
2213	0	32816	32775	32800	32704	36999	34204	34728	
2214	0	32781	32789	32707	32838	36935	34224	34719	
2215	0	32724	32688	32867	32775	37061	34218	34755	
2216	0	32820	32813	32615	32695	37057	34210	34747	
2217	0	32801	32583	32491	32826	36999	34179	34715	
2218	0	32646	32575	32611	32707	36937	34183	34719	
2219	0	32824	32751	32694	32769	36947	34216	34743	
2220	0	32658	32537	32661	32680	37035	34213	34785	
2221	0	32893	32790	32727	32850	37037	34207	34775	
2222	0	32818	32699	32434	32820	36983	34204	34745	
2223	0	32660	32679	32692	32687	36954	34213	34725	
2224	0	32701	32754	32677	32796	36967	34205	34743	
2225	0	32550	32677	32656	32848	37057	34227	34758	
2226	0	32796	32739	32713	32665	37059	34199	34781	
2227	0	32669	32681	32700	32775	37020	34183	34747	
2228	0	32704	32736	32595	32711	36926	34182	34731	
2229	0	32742	32646	32647	32749	36932	34176	34726	
2230	0	32813	32775	32499	32816	36967	34209	34717	
2231	0	32764	32615	32775	32741	37005	34199	34733	
2232	0	32739	32715	32603	32608	37075	34183	34754	
2233	0	32748	32600	32653	32798	37058	34169	34731	
2234	0	32824	32607	32482	32775	36992	34156	34733	
2235	0	32703	32742	32510	32694	36997	34191	34719	
2236	0	32800	32723	32654	32659	36942	34199	34713	
2237	0	32796	32603	32669	32743	36975	34239	34729	
2238	0	32820	32698	32482	32626	36999	34224	34759	
2239	0	32826	32762	32452	32703	37050	34218	34777	
2240	0	32654	32716	32743	32882	37030	34197	34740	
2241	0	32492	32824	32810	32985	36966	34173	34730	
2242	0	32835	32679	32711	32647	36951	34183	34695	
2243	0	32833	32587	32599	32743	36966	34210	34723	
2244	0	32720	32753	32735	32735	37046	34203	34755	
2245	0	32834	32698	32538	32775	37037	34191	34774	
2246	0	32728	32660	32681	32771	36984	34213	34758	
2247	0	32757	32663	32647	32828	36995	34224	34738	
2248	0	32831	32751	32699	32627	36999	34207	34738	
2249	0	32662	32697	32520	32746	36999	34163	34747	
2250	0	32801	32711	32527	32752	37010	34167	34742	
2251	0	32816	32691	32583	32858	36983	34167	34726	
2252	0	32733	32570	32676	32766	36978	34197	34749	
2253	0	32903	32629	32699	32694	36983	34227	34755	
2254	0	32700	32715	32429	32642	36986	34224	34759	
2255	0	32654	32685	32686	32758	37010	34197	34766	
2256	0	32817	32708	32666	32791	37019	34173	34755	
2257	0	32674	32563	32704	32711	37014	34168	34732	
2258	0	32860	32635	32625	32688	37015	34178	34722	
2259	0	32706	32724	32519	32745	37015	34197	34735	
2260	0	32848	32601	32636	32796	37021	34201	34733	
2261	0	32843	32563	32561	32739	37020	34188	34717	
2262	0	32650	32597	32788	32761	36999	34193	34727	
2263	0	32811	32775	32510	32758	37010	34207	34729	
2264	0	32743	32642	32685	32770	37010	34190	34722	
2265	0	32732	32720	32727	32827	36999	34199	34728	
2266	0	32720	32612	32819	32599	36995	34213	34738	
2267	0	32722	32711	32679	32621	36999	34207	34736	
2268	0	32675	32703	32744	32729	37014	34214	34742	
2269	0	32800	32754	32729	32747	36983	34190	34767	
2270	0	32758	32611	32504	32743	37007	34192	34779	
2271	0	32798	32715	32699	32744	36958	34199	34755	
2272	0	32663	32711	32716	32773	37023	34184	34738	
2273	0	32810	32763	32686	32638	36994	34179	34746	
2274	0	32749	32766	32617	32786	36986	34194	34742	
2275	0	32810	32715	32615	32766	37021	34209	34762	
2276	0	32730	32775	32609	32615	37033	34209	34745	
2277	0	32700	32579	32660	32775	36979	34194	34759	
2278	0	32828	32711	32662	32751	36999	34166	34738	
2279	0	32752	32637	32765	32784	37024	34159	34754	
2280	0	32802	32737	32834	32798	37023	34190	34759	
2281	0	32850	32596	32647	32775	37014	34187	34770	
2282	0	32729	32760	32573	32828	36991	34183	34781	
2283	0	32800	32682	32580	32790	36982	34183	34749	
2284	0	32702	32774	32702	32769	36999	34190	34724	
2285	0	32780	32807	32710	32570	36982	34183	34738	
2286	0	32824	32747	32611	32807	36966	34191	34724	
2287	0	32668	32819	32685	32795	36999	34183	34710	
2288	0	32740	32743	32723	32745	37030	34170	34727	
2289	0	32714	32742	32686	32743	37019	34181	34729	
2290	0	32829	32683	32726	32775	37038	34183	34734	
2291	0	32734	32809	32703	32685	36990	34181	34744	
2292	0	32708	32731	32628	32711	36982	34188	34723	
2293	0	32818	32711	32767	32771	37010	34201	34747	
2294	0	32747	32715	32502	32764	36998	34190	34723	
2295	0	32800	32683	32557	32731	36986	34199	34713	
2296	0	32784	32737	32763	32817	36987	34183	34736	
2297	0	32684	32647	32532	32795	37008	34188	34728	
2298	0	32903	32751	32493	32742	37023	34177	34722	
2299	0	32775	32739	32690	32641	36999	34206	34754	
2300	0	32886	32699	32751	32830	37031	34215	34763	
2301	0	32734	32699	32681	32762	37019	34204	34746	
2302	0	32744	32507	32541	32632	36994	34192	34736	
2303	0	32892	32815	32718	32766	37024	34163	34733	
2304	0	32738	32523	32708	32807	36983	34190	34717	
2305	0	32782	32647	32736	32591	36999	34159	34728	
2306	0	32835	32766	32646	32764	37015	34167	34725	
2307	0	32775	32631	32482	32647	37029	34165	34716	
2308	0	32726	32519	32729	32698	37006	34152	34726	
2309	0	32879	32738	32635	32827	37023	34167	34726	
2310	0	32690	32527	32571	32731	37006	34170	34738	
2311	0	32816	32751	32592	32804	37039	34177	34727	
2312	0	32789	32611	32752	32753	37030	34168	34734	
2313	0	32819	32628	32512	32854	37019	34181	34711	
2314	0	32952	32615	32592	32756	36999	34183	34722	
2315	0	32732	32758	32711	32811	37007	34169	34736	
2316	0	32739	32703	32711	32606	37030	34171	34739	
2317	0	32823	32513	32674	32771	37041	34192	34711	
2318	0	32734	32647	32515	32691	37014	34212	34695	
2319	0	32797	32738	32488	32644	37034	34223	34717	
2320	0	32748	32764	32677	32688	37021	34197	34717	
2321	0	32734	32699	32595	32799	36994	34183	34720	
2322	0	32786	32539	32620	32694	36986	34197	34720	
2323	0	32866	32730	32515	32727	36995	34183	34727	
2324	0	32876	32639	32550	32535	37049	34190	34720	
2325	0	32640	32742	32703	32873	37022	34163	34727	
2326	0	32583	32839	32787	32998	37024	34181	34695	
2327	0	32686	32599	32512	32742	36983	34191	34695	
2328	0	32882	32726	32688	32707	37014	34187	34719	
2329	0	32684	32763	32691	32644	37031	34189	34713	
2330	0	32724	32699	32595	32642	37031	34199	34717	
2331	0	32846	32710	32614	32613	37016	34189	34699	
2332	0	32816	32735	32615	32775	37026	34194	34713	
2333	0	32786	32745	32495	32695	37019	34204	34707	
2334	0	32754	32764	32543	32734	37039	34182	34731	
2335	0	32793	32546	32680	32775	37016	34183	34722	
2336	0	32800	32696	32728	32716	37031	34178	34695	
2337	0	32833	32575	32673	32720	37039	34216	34713	
2338	0	32796	32391	32691	32712	37051	34212	34729	
2339	0	32710	33307	32519	33102	37042	34223	34721	
2340	0	32690	31800	32647	32900	37029	34239	34755	
2341	0	32742	32081	32775	33662	37056	34231	34768	
2342	0	32880	31710	32477	31699	37029	34277	34752	
2343	0	32775	35041	32610	34272	37061	34292	34759	
2344	0	32740	33689	32669	32389	37094	34283	34730	
2345	0	32786	36425	32720	33236	37078	34273	34712	
2346	0	32828	32401	32599	33026	37104	34265	34735	
2347	0	32720	31917	32539	32527	37037	34247	34727	
2348	0	32620	33370	32519	30616	37037	34256	34779	
2349	0	32992	31878	32648	33781	37057	34214	34771	
2350	0	32564	30739	32627	31255	37108	34171	34800	
2351	0	32588	32943	32548	31670	37198	34088	34783	
2352	0	32698	31826	32706	32463	37191	34136	34784	
2353	0	32859	32574	32775	33927	37097	34131	34763	
2354	0	32686	32342	32677	35619	37054	34115	34845	
2355	0	32932	32135	32560	33755	37063	34095	34902	
2356	0	32921	33629	32707	32795	37157	34050	34912	
2357	0	32729	32345	32459	32296	37111	34066	34882	
2358	0	32480	32117	32634	34959	37051	34065	34887	
2359	0	32748	33146	32526	32995	36969	34061	34992	
2360	0	32797	31401	32865	32406	37087	34118	35108	
2361	0	32720	30495	32684	32293	37129	34220	35091	
2362	0	32814	32889	32711	32209	37191	34206	35031	
2363	0	32710	31751	32427	31842	37202	34089	34997	
2364	0	32660	30363	32618	33327	37175	34015	35045	
2365	0	32688	31751	32545	28909	37100	33979	35062	
2366	0	32726	31940	32571	32967	37010	33991	35015	
2367	0	32820	32354	32771	32536	37126	33978	35060	
2368	0	32880	31559	32514	31730	37154	33984	35060	
2369	0	32698	31613	32678	34575	37191	33999	35058	
2370	0	32784	34380	32523	33797	37138	33984	35080	
2371	0	32670	32435	32767	35121	37149	33927	35104	
2372	0	32884	30560	32723	29860	37225	33889	34997	
2373	0	32542	33396	32673	33334	37255	33860	35051	
2374	0	32701	33058	32724	30316	37019	33859	35370	
2375	0	32806	32407	32711	32663	37403	33827	35113	
2376	0	32690	31255	32329	31297	37155	33799	35113	
2377	0	32736	37255	32721	33482	37145	33763	35220	
2378	0	32746	35408	32740	30800	37106	33700	35238	
2379	0	32766	31555	32796	31547	37036	33697	35246	
2380	0	32722	35108	32743	32088	36982	33641	35310	
2381	0	32752	33107	32674	31140	36983	33629	35346	
2382	0	32830	27396	32344	32616	36900	33587	35315	
2383	0	32710	30727	32445	32964	36925	33543	35314	
2384	0	32690	30213	32487	31394	36947	33527	35424	
2385	0	32901	34043	32613	30727	36810	33518	35442	
2386	0	32729	31675	32626	34835	36807	33490	35518	
2387	0	32612	31037	32583	31763	36813	33472	35539	
2388	0	32802	30993	32750	32986	36839	33426	35519	
2389	0	32821	34434	32745	31794	36711	33399	35508	
2390	0	32713	35522	32711	32768	36655	33317	35517	
2391	0	32732	38761	32674	39047	36699	33284	35507	
2392	0	32706	31975	32617	32165	36677	33234	35442	
2393	0	32754	30080	32568	32537	36671	33229	35408	
2394	0	32753	33027	32628	31760	36610	33231	35430	
2395	0	32775	34307	32659	34023	36582	33235	35376	
2396	0	32775	32286	32742	31277	36554	33213	35399	
2397	0	32832	34071	32727	31435	36517	33131	35389	
2398	0	32746	32903	32690	31506	36471	33086	35335	
2399	0	32775	33799	32868	32576	36475	33110	35354	
2400	0	32846	29983	32775	31560	36460	33108	35356	
2401	0	32662	32863	32527	32740	36477	33084	35361	
2402	0	32862	33745	32642	32524	36477	33040	35350	
2403	0	32685	31735	32551	33999	36504	32995	35322	
2404	0	32801	31790	32644	35484	36538	32964	35312	
2405	0	32905	34848	32622	32045	36567	32962	35292	
2406	0	32724	35192	32690	39040	36595	32904	35335	
2407	0	32504	27608	32647	31006	36537	32882	35330	
2408	0	32715	33116	32642	34269	36519	32889	35316	
