# OpenSignals Text File Format
# {"00:07:80:3B:46:38": {"sensor": ["EMG", "EMG", "EMG", "EMG", "XYZ", "XYZ", "XYZ"], "device name": "00:07:80:3B:46:38", "column": ["nSeq", "DI", "FL", "BL", "FR", "BR", "Z", "Y", "X"], "sync interval": 2, "time": "13:58:53.471", "comments": "", "device connection": "BTH00:07:80:3B:46:38", "channels": [1, 2, 3, 4, 6, 7, 8], "date": "2016-6-24", "mode": 0, "digital IO": [0, 1], "firmware version": 772, "device": "biosignalsplux", "position": 0, "sampling rate": 100, "label": ["FL", "BL", "FR", "BR", "Z", "Y", "X"], "resolution": [16, 16, 16, 16, 16, 16, 16], "special": [{}, {}, {}, {}, {}, {}, {}]}}
# EndOfHeader
0	0	32722	32547	32567	32699	37172	34814	33556	
1	0	32804	32759	32550	32797	37217	34802	33563	
2	0	32706	32579	32666	32689	37196	34790	33538	
3	0	32758	32760	32652	32804	37179	34800	33535	
4	0	32772	32726	32690	32831	37175	34806	33541	
5	0	32758	32543	32657	32736	37203	34776	33547	
6	0	32741	32594	32525	32806	37177	34790	33548	
7	0	32760	32703	32647	32658	37190	34803	33561	
8	0	32795	32727	32667	32802	37207	34786	33573	
9	0	32830	32655	32702	32742	37185	34802	33551	
10	0	32844	32599	32670	32706	37191	34793	33552	
11	0	32820	32719	32582	32723	37203	34791	33551	
12	0	32646	32768	32791	32803	37199	34800	33551	
13	0	32456	32829	32891	32825	37211	34791	33520	
14	0	32839	32753	32530	32748	37185	34772	33528	
15	0	32884	32546	32559	32718	37191	34792	33527	
16	0	32775	32599	32587	32735	37196	34800	33549	
17	0	32764	32593	32621	32819	37191	34781	33557	
18	0	32738	32739	32606	32612	37207	34790	33545	
19	0	32840	32755	32583	32665	37202	34806	33523	
20	0	32800	32673	32692	32702	37220	34815	33551	
21	0	32770	32743	32714	32583	37191	34803	33573	
22	0	32746	32714	32575	32659	37199	34794	33561	
23	0	32746	32626	32647	32677	37181	34794	33545	
24	0	32795	32711	32647	32806	37218	34806	33542	
25	0	32793	32655	32553	32775	37191	34822	33566	
26	0	32785	32733	32714	32717	37203	34813	33547	
27	0	32793	32710	32667	32797	37207	34783	33559	
28	0	32763	32763	32545	32828	37161	34755	33542	
29	0	32818	32685	32711	32769	37223	34777	33531	
30	0	32775	32791	32529	32695	37196	34777	33520	
31	0	32870	32588	32662	32803	37185	34771	33515	
32	0	32762	32643	32663	32764	37181	34789	33526	
33	0	32732	32723	32578	32668	37191	34779	33526	
34	0	32768	32577	32562	32705	37207	34803	33529	
35	0	32725	32699	32654	32679	37174	34800	33543	
36	0	32740	32699	32654	32775	37225	34823	33538	
37	0	32792	32711	32749	32808	37241	34823	33512	
38	0	32716	32549	32642	32808	37220	34815	33533	
39	0	32744	32554	32625	32709	37170	34808	33550	
40	0	32798	32558	32486	32765	37200	34811	33535	
41	0	32788	32694	32711	32705	37201	34813	33541	
42	0	32730	32711	32556	32628	37203	34811	33542	
43	0	32708	32759	32756	32717	37217	34794	33566	
44	0	32747	32738	32498	32639	37204	34797	33536	
45	0	32738	32745	32698	32839	37203	34793	33540	
46	0	32736	32671	32588	32711	37214	34774	33552	
47	0	32846	32657	32797	32775	37202	34776	33531	
48	0	32786	32594	32742	32629	37202	34771	33538	
49	0	32768	32506	32731	32706	37196	34771	33524	
50	0	32752	32723	32682	32759	37202	34758	33525	
51	0	32804	32743	32728	32800	37219	34768	33557	
52	0	32768	32552	32706	32788	37202	34775	33556	
53	0	32790	32701	32555	32822	37211	34773	33565	
54	0	32825	32739	32671	32770	37217	34769	33550	
55	0	32752	32635	32626	32772	37163	34784	33530	
56	0	32721	32715	32575	32731	37191	34793	33522	
57	0	32802	32626	32594	32743	37202	34787	33518	
58	0	32688	32713	32573	32775	37229	34782	33537	
59	0	32764	32684	32640	32802	37180	34780	33552	
60	0	32807	32775	32663	32775	37203	34807	33512	
61	0	32734	32703	32664	32740	37239	34787	33523	
62	0	32763	32743	32706	32763	37231	34796	33538	
63	0	32775	32761	32667	32775	37202	34794	33536	
64	0	32760	32694	32707	32742	37220	34790	33536	
65	0	32738	32605	32688	32690	37176	34792	33531	
66	0	32732	32613	32660	32793	37199	34795	33535	
67	0	32790	32741	32588	32763	37190	34790	33536	
68	0	32743	32647	32539	32773	37191	34776	33543	
69	0	32792	32576	32710	32735	37223	34765	33539	
70	0	32688	32558	32738	32587	37196	34778	33542	
71	0	32786	32573	32726	32806	37213	34766	33530	
72	0	32741	32775	32698	32823	37191	34776	33552	
73	0	32705	32775	32571	32725	37191	34779	33544	
74	0	32752	32675	32730	32743	37206	34780	33555	
75	0	32744	32775	32617	32655	37206	34773	33538	
76	0	32775	32614	32528	32671	37226	34770	33537	
77	0	32804	32770	32558	32818	37225	34759	33535	
78	0	32760	32563	32518	32751	37191	34774	33551	
79	0	32792	32768	32702	32775	37211	34768	33521	
80	0	32720	32663	32665	32706	37229	34775	33514	
81	0	32763	32673	32577	32763	37203	34779	33534	
82	0	32775	32694	32703	32774	37191	34759	33531	
83	0	32730	32795	32717	32758	37219	34769	33539	
84	0	32758	32711	32699	32654	37223	34774	33547	
85	0	32809	32684	32553	32647	37206	34790	33534	
86	0	32792	32677	32498	32732	37206	34775	33535	
87	0	32762	32762	32755	32775	37191	34771	33545	
88	0	32792	32701	32662	32733	37191	34784	33547	
89	0	32722	32565	32639	32727	37235	34768	33534	
90	0	32774	32706	32583	32761	37229	34770	33538	
91	0	32733	32797	32694	32775	37191	34771	33544	
92	0	32762	32759	32508	32746	37202	34755	33563	
93	0	32791	32595	32603	32806	37221	34755	33555	
94	0	32792	32574	32424	32646	37202	34769	33538	
95	0	32858	32711	32502	32620	37217	34773	33548	
96	0	32808	32717	32455	32723	37217	34770	33543	
97	0	32671	32745	32756	32902	37212	34766	33550	
98	0	32556	32810	32941	32864	37217	34759	33535	
99	0	32856	32742	32621	32747	37231	34762	33529	
100	0	32842	32775	32658	32715	37204	34758	33526	
101	0	32749	32644	32558	32773	37242	34754	33526	
102	0	32744	32701	32659	32800	37209	34758	33551	
103	0	32754	32557	32722	32775	37191	34793	33522	
104	0	32784	32696	32641	32788	37189	34763	33538	
105	0	32745	32773	32647	32789	37231	34791	33536	
106	0	32766	32775	32736	32774	37244	34765	33539	
107	0	32762	32754	32709	32695	37219	34781	33529	
108	0	32736	32615	32630	32637	37208	34774	33534	
109	0	32775	32764	32565	32659	37213	34799	33530	
110	0	32744	32671	32673	32795	37219	34792	33560	
111	0	32792	32637	32647	32756	37200	34787	33555	
112	0	32730	32558	32633	32729	37177	34734	33551	
113	0	32817	32730	32466	32807	37228	34733	33543	
114	0	32756	32683	32608	32811	37207	34746	33522	
115	0	32775	32599	32694	32614	37184	34745	33522	
116	0	32760	32721	32642	32691	37239	34754	33517	
117	0	32732	32628	32690	32775	37219	34754	33526	
118	0	32739	32665	32721	32802	37218	34743	33530	
119	0	32775	32807	32523	32601	37227	34759	33543	
120	0	32742	32547	32694	32819	37238	34779	33547	
121	0	32745	32775	32506	32656	37245	34774	33551	
122	0	32744	32731	32518	32798	37191	34778	33543	
123	0	32763	32695	32638	32673	37227	34788	33531	
124	0	32710	32775	32711	32823	37215	34781	33551	
125	0	32716	32762	32623	32722	37233	34794	33538	
126	0	32765	32532	32749	32774	37202	34769	33539	
127	0	32790	32688	32658	32770	37227	34776	33543	
128	0	32801	32662	32549	32823	37191	34759	33538	
129	0	32732	32567	32503	32736	37208	34764	33549	
130	0	32760	32699	32668	32764	37209	34759	33534	
131	0	32702	32703	32735	32763	37211	34742	33568	
132	0	32764	32706	32699	32665	37224	34747	33546	
133	0	32755	32738	32534	32747	37219	34763	33556	
134	0	32794	32709	32583	32670	37191	34755	33559	
135	0	32741	32579	32584	32827	37216	34751	33527	
136	0	32744	32706	32581	32656	37219	34738	33541	
137	0	32770	32763	32524	32809	37214	34743	33530	
138	0	32768	32545	32550	32688	37239	34770	33540	
139	0	32745	32752	32754	32832	37179	34740	33554	
140	0	32746	32655	32593	32728	37198	34769	33571	
141	0	32840	32651	32557	32775	37221	34742	33569	
142	0	32756	32761	32505	32685	37215	34773	33548	
143	0	32752	32690	32510	32738	37199	34766	33530	
144	0	32775	32731	32761	32678	37219	34759	33524	
145	0	32775	32566	32543	32749	37222	34767	33536	
146	0	32788	32631	32711	32742	37209	34759	33539	
147	0	32794	32738	32655	32820	37203	34768	33536	
148	0	32732	32603	32590	32765	37226	34767	33539	
149	0	32723	32805	32607	32773	37219	34759	33522	
150	0	32732	32738	32559	32608	37223	34736	33549	
151	0	32788	32743	32706	32697	37191	34751	33553	
152	0	32760	32668	32673	32595	37197	34747	33564	
153	0	32720	32639	32670	32695	37204	34748	33562	
154	0	32714	32695	32516	32723	37224	34759	33561	
155	0	32728	32705	32532	32733	37215	34769	33546	
156	0	32775	32745	32669	32788	37179	34759	33549	
157	0	32742	32720	32731	32832	37209	34763	33557	
158	0	32723	32543	32683	32794	37237	34747	33552	
159	0	32816	32775	32711	32813	37228	34743	33561	
160	0	32775	32763	32803	32679	37217	34759	33559	
161	0	32820	32637	32602	32763	37202	34769	33543	
162	0	32792	32769	32531	32706	37217	34742	33561	
163	0	32744	32741	32551	32819	37202	34740	33542	
164	0	32744	32706	32659	32808	37223	34752	33543	
165	0	32742	32742	32790	32759	37219	34739	33551	
166	0	32734	32569	32762	32727	37233	34758	33549	
167	0	32732	32690	32551	32762	37217	34750	33547	
168	0	32752	32690	32737	32746	37218	34744	33543	
169	0	32789	32758	32517	32723	37211	34742	33553	
170	0	32736	32687	32727	32751	37216	34769	33555	
171	0	32822	32552	32689	32738	37220	34767	33546	
172	0	32720	32647	32624	32839	37225	34759	33554	
173	0	32752	32615	32688	32693	37187	34763	33555	
174	0	32734	32723	32615	32639	37202	34759	33559	
175	0	32763	32754	32675	32775	37221	34769	33553	
176	0	32754	32520	32743	32647	37191	34771	33555	
177	0	32824	32775	32796	32681	37223	34754	33550	
178	0	32744	32685	32571	32774	37203	34758	33536	
179	0	32793	32572	32703	32698	37221	34750	33552	
180	0	32746	32533	32688	32679	37207	34753	33561	
181	0	32716	32571	32679	32678	37211	34736	33559	
182	0	32816	32627	32505	32563	37213	34739	33563	
183	0	32796	32727	32543	32641	37202	34744	33570	
184	0	32808	32642	32723	32702	37206	34747	33549	
185	0	32662	32759	32775	32962	37235	34735	33560	
186	0	32552	32697	32741	32744	37211	34731	33550	
187	0	32870	32623	32666	32666	37210	34730	33558	
188	0	32809	32702	32523	32704	37227	34750	33549	
189	0	32807	32707	32734	32725	37226	34737	33546	
190	0	32802	32711	32714	32803	37237	34742	33567	
191	0	32804	32673	32538	32690	37191	34773	33540	
192	0	32775	32734	32658	32758	37196	34758	33561	
193	0	32791	32775	32486	32756	37219	34768	33559	
194	0	32762	32617	32531	32751	37251	34732	33565	
195	0	32775	32752	32695	32825	37225	34739	33557	
196	0	32764	32751	32539	32802	37223	34759	33549	
197	0	32699	32653	32591	32735	37191	34754	33569	
198	0	32743	32694	32567	32735	37208	34773	33583	
199	0	32808	32666	32555	32804	37223	34773	33581	
200	0	32775	32739	32495	32701	37221	34746	33575	
201	0	32794	32745	32628	32808	37215	34740	33563	
202	0	32718	32764	32623	32674	37225	34707	33543	
203	0	32773	32734	32576	32786	37215	34750	33546	
204	0	32816	32562	32813	32751	37216	34729	33551	
205	0	32742	32704	32690	32680	37207	34726	33539	
206	0	32717	32667	32552	32794	37225	34728	33569	
207	0	32744	32728	32711	32715	37196	34726	33579	
208	0	32744	32636	32685	32711	37203	34747	33565	
209	0	32760	32698	32495	32756	37219	34761	33551	
210	0	32706	32823	32679	32742	37207	34774	33543	
211	0	32746	32551	32662	32851	37225	34771	33535	
212	0	32775	32807	32541	32775	37202	34755	33559	
213	0	32800	32678	32565	32678	37223	34758	33575	
214	0	32711	32615	32711	32609	37206	34767	33563	
215	0	32817	32561	32687	32839	37196	34747	33553	
216	0	32770	32820	32676	32765	37223	34748	33587	
217	0	32784	32711	32716	32794	37215	34758	33561	
218	0	32800	32707	32507	32751	37230	34742	33552	
219	0	32748	32730	32733	32733	37246	34738	33567	
220	0	32728	32763	32681	32771	37229	34743	33563	
221	0	32736	32786	32569	32727	37193	34736	33573	
222	0	32795	32577	32672	32661	37210	34743	33561	
223	0	32738	32567	32647	32730	37210	34729	33561	
224	0	32818	32763	32727	32796	37236	34726	33535	
225	0	32790	32726	32733	32680	37225	34718	33549	
226	0	32722	32691	32624	32810	37235	34743	33559	
227	0	32725	32762	32683	32745	37225	34746	33568	
228	0	32764	32749	32660	32775	37247	34733	33576	
229	0	32730	32615	32679	32732	37215	34755	33571	
230	0	32825	32742	32611	32775	37231	34758	33565	
231	0	32768	32725	32599	32723	37191	34759	33548	
232	0	32720	32729	32736	32712	37222	34754	33554	
233	0	32801	32654	32775	32814	37216	34751	33557	
234	0	32771	32811	32711	32632	37218	34754	33551	
235	0	32769	32590	32547	32743	37210	34738	33563	
236	0	32788	32759	32754	32810	37242	34736	33569	
237	0	32739	32580	32703	32775	37217	34737	33557	
238	0	32720	32639	32696	32742	37220	34740	33581	
239	0	32852	32566	32642	32810	37219	34735	33563	
240	0	32788	32728	32504	32620	37221	34755	33577	
241	0	32775	32703	32647	32711	37210	34729	33573	
242	0	32793	32803	32768	32764	37227	34752	33579	
243	0	32774	32709	32647	32638	37207	34727	33579	
244	0	32791	32536	32727	32771	37239	34742	33575	
245	0	32784	32556	32568	32754	37208	34735	33566	
246	0	32810	32806	32568	32722	37223	34733	33573	
247	0	32704	32671	32758	32687	37216	34750	33567	
248	0	32732	32695	32686	32694	37225	34743	33567	
249	0	32763	32722	32678	32775	37262	34759	33559	
250	0	32746	32595	32555	32802	37233	34727	33559	
251	0	32752	32607	32772	32771	37181	34758	33553	
252	0	32742	32708	32617	32561	37221	34740	33572	
253	0	32770	32803	32671	32612	37247	34732	33569	
254	0	32786	32710	32635	32789	37191	34728	33549	
255	0	32770	32669	32697	32825	37233	34750	33552	
256	0	32725	32738	32608	32731	37225	34738	33561	
257	0	32784	32598	32790	32739	37233	34754	33557	
258	0	32716	32698	32629	32726	37222	34739	33571	
259	0	32792	32710	32734	32656	37223	34736	33565	
260	0	32764	32598	32647	32607	37183	34737	33575	
261	0	32773	32757	32775	32615	37225	34755	33573	
262	0	32805	32742	32696	32767	37219	34740	33569	
263	0	32724	32704	32704	32752	37202	34735	33574	
264	0	32745	32671	32701	32698	37223	34754	33561	
265	0	32775	32624	32597	32629	37225	34736	33589	
266	0	32762	32705	32669	32696	37218	34743	33554	
267	0	32766	32738	32727	32707	37233	34740	33576	
268	0	32754	32634	32732	32711	37206	34733	33581	
269	0	32773	32731	32754	32629	37200	34726	33591	
270	0	32731	32528	32747	32850	37217	34730	33575	
271	0	32812	32775	32669	32596	37179	34739	33559	
272	0	32775	32770	32647	32632	37191	34737	33562	
273	0	32816	32729	32673	32759	37202	34749	33561	
274	0	32743	32743	32677	32687	37206	34736	33579	
275	0	32808	32711	32706	32678	37208	34740	33568	
276	0	32890	32721	32637	32552	37203	34729	33579	
277	0	32821	32732	32683	32690	37200	34728	33571	
278	0	32512	32851	32801	32970	37224	34738	33560	
279	0	32686	32665	32643	32791	37206	34742	33549	
280	0	32914	32692	32454	32668	37221	34743	33555	
281	0	32792	32685	32495	32818	37235	34735	33556	
282	0	32798	32772	32612	32790	37250	34739	33577	
283	0	32764	32734	32704	32740	37198	34755	33576	
284	0	32764	32720	32556	32775	37191	34755	33563	
285	0	32775	32640	32663	32763	37191	34755	33550	
286	0	32816	32568	32694	32639	37223	34759	33574	
287	0	32830	32691	32647	32806	37197	34728	33601	
288	0	32770	32711	32704	32820	37198	34743	33562	
289	0	32736	32652	32754	32642	37206	34727	33573	
290	0	32800	32662	32553	32750	37227	34768	33587	
291	0	32844	32711	32567	32819	37222	34759	33595	
292	0	32778	32515	32512	32699	37223	34759	33593	
293	0	32791	32747	32655	32725	37205	34735	33576	
294	0	32761	32559	32577	32722	37223	34695	33550	
295	0	32750	32608	32674	32754	37187	34722	33531	
296	0	32756	32696	32637	32643	37241	34722	33540	
297	0	32743	32784	32659	32703	37228	34730	33542	
298	0	32748	32538	32697	32633	37206	34717	33553	
299	0	32748	32690	32587	32775	37222	34725	33558	
300	0	32729	32702	32775	32694	37222	34733	33577	
301	0	32775	32791	32521	32751	37222	34745	33587	
302	0	32760	32610	32572	32791	37223	34758	33575	
303	0	32828	32540	32673	32711	37191	34759	33567	
304	0	32725	32719	32464	32617	37223	34763	33569	
305	0	32747	32619	32723	32831	37221	34767	33562	
306	0	32688	32727	32609	32655	37206	34766	33575	
307	0	32780	32699	32743	32809	37226	34755	33555	
308	0	32745	32703	32573	32748	37203	34759	33568	
309	0	32728	32707	32610	32789	37214	34739	33568	
310	0	32790	32720	32583	32739	37221	34746	33583	
311	0	32775	32789	32641	32749	37237	34726	33577	
312	0	32808	32676	32687	32635	37223	34738	33571	
313	0	32800	32519	32656	32794	37216	34738	33565	
314	0	32704	32700	32598	32798	37221	34746	33566	
315	0	32789	32573	32716	32775	37214	34736	33560	
316	0	32721	32805	32711	32618	37234	34706	33539	
317	0	32730	32738	32758	32635	37191	34719	33543	
318	0	32684	32746	32681	32702	37223	34736	33567	
319	0	32745	32499	32682	32766	37187	34736	33554	
320	0	32755	32839	32756	32690	37198	34716	33561	
321	0	32770	32662	32538	32802	37217	34735	33561	
322	0	32856	32595	32658	32775	37213	34762	33568	
323	0	32743	32668	32754	32769	37211	34731	33577	
324	0	32802	32743	32738	32692	37213	34754	33552	
325	0	32732	32655	32775	32607	37209	34737	33557	
326	0	32792	32759	32742	32743	37215	34738	33552	
327	0	32795	32609	32540	32775	37221	34754	33561	
328	0	32792	32596	32616	32771	37229	34770	33565	
329	0	32757	32690	32530	32827	37207	34759	33535	
330	0	32762	32711	32651	32670	37215	34736	33583	
331	0	32804	32519	32711	32725	37223	34717	33569	
332	0	32784	32595	32688	32633	37206	34750	33570	
333	0	32775	32652	32742	32720	37206	34763	33560	
334	0	32755	32695	32678	32801	37245	34755	33564	
335	0	32748	32715	32647	32807	37223	34744	33581	
336	0	32828	32603	32585	32801	37224	34759	33566	
337	0	32761	32698	32662	32658	37214	34759	33550	
338	0	32775	32753	32602	32796	37200	34755	33567	
339	0	32773	32699	32715	32775	37229	34752	33552	
340	0	32726	32734	32831	32684	37223	34747	33557	
341	0	32740	32742	32637	32833	37217	34755	33541	
342	0	32757	32787	32496	32793	37214	34746	33550	
343	0	32784	32740	32711	32711	37224	34746	33560	
344	0	32802	32590	32679	32775	37215	34739	33554	
345	0	32744	32743	32766	32756	37207	34738	33555	
346	0	32796	32665	32643	32703	37217	34739	33559	
347	0	32763	32662	32734	32627	37239	34726	33546	
348	0	32728	32749	32676	32762	37218	34738	33559	
349	0	32770	32711	32619	32692	37202	34741	33551	
350	0	32710	32615	32647	32674	37229	34743	33557	
351	0	32780	32676	32662	32747	37211	34751	33565	
352	0	32754	32602	32759	32707	37189	34768	33571	
353	0	32834	32702	32738	32754	37218	34754	33543	
354	0	32780	32696	32617	32722	37200	34759	33555	
355	0	32764	32677	32731	32758	37161	34755	33559	
356	0	32744	32726	32738	32842	37189	34736	33554	
357	0	32762	32691	32617	32788	37202	34735	33565	
358	0	32732	32711	32525	32738	37225	34749	33575	
359	0	32746	32773	32609	32717	37203	34766	33571	
360	0	32775	32543	32677	32773	37228	34771	33549	
361	0	32786	32607	32672	32686	37213	34758	33566	
362	0	32765	32543	32607	32742	37221	34763	33541	
363	0	32798	32564	32679	32729	37239	34759	33551	
364	0	32789	32716	32517	32687	37203	34746	33560	
365	0	32775	32771	32680	32801	37187	34749	33548	
366	0	32797	32821	32721	32771	37179	34764	33555	
367	0	32879	32672	32455	32549	37198	34754	33576	
368	0	32854	32637	32521	32627	37223	34754	33555	
369	0	32768	32679	32642	32775	37199	34752	33547	
370	0	32574	32903	32816	32944	37202	34751	33543	
371	0	32726	32673	32736	32775	37222	34751	33539	
372	0	32873	32612	32557	32704	37200	34747	33541	
373	0	32786	32551	32590	32675	37211	34754	33537	
374	0	32744	32682	32692	32765	37202	34759	33543	
375	0	32775	32571	32549	32789	37222	34774	33555	
376	0	32736	32583	32643	32703	37237	34786	33563	
377	0	32766	32521	32679	32706	37200	34781	33542	
378	0	32799	32645	32518	32695	37231	34773	33551	
379	0	32720	32743	32647	32739	37230	34774	33576	
380	0	32771	32605	32542	32807	37209	34766	33562	
381	0	32768	32745	32719	32676	37231	34750	33544	
382	0	32772	32702	32603	32674	37211	34785	33562	
383	0	32760	32531	32660	32775	37214	34780	33580	
384	0	32788	32747	32666	32769	37233	34776	33567	
385	0	32793	32727	32576	32749	37242	34745	33564	
386	0	32752	32583	32495	32687	37207	34734	33552	
387	0	32784	32775	32745	32765	37223	34718	33534	
388	0	32806	32684	32559	32708	37196	34735	33525	
389	0	32790	32687	32647	32745	37199	34739	33531	
390	0	32790	32696	32698	32751	37215	34754	33528	
391	0	32805	32755	32742	32810	37212	34768	33538	
392	0	32788	32730	32653	32715	37223	34769	33542	
393	0	32773	32612	32461	32691	37237	34764	33556	
394	0	32747	32758	32694	32705	37223	34796	33547	
395	0	32746	32658	32704	32745	37221	34803	33544	
396	0	32732	32661	32625	32800	37200	34800	33538	
397	0	32724	32611	32625	32684	37191	34788	33542	
398	0	32730	32605	32686	32787	37191	34771	33559	
399	0	32773	32654	32557	32667	37203	34783	33531	
400	0	32740	32759	32806	32743	37191	34758	33551	
401	0	32703	32575	32766	32632	37183	34746	33567	
402	0	32702	32773	32687	32695	37224	34752	33549	
403	0	32784	32701	32517	32685	37215	34759	33547	
404	0	32793	32741	32639	32788	37215	34765	33555	
405	0	32750	32576	32677	32662	37207	34755	33558	
406	0	32728	32647	32642	32816	37204	34750	33547	
407	0	32775	32694	32691	32751	37207	34751	33543	
408	0	32766	32705	32642	32798	37219	34731	33539	
409	0	32772	32767	32673	32775	37221	34758	33551	
410	0	32764	32727	32630	32692	37215	34759	33549	
411	0	32746	32634	32652	32741	37221	34758	33551	
412	0	32790	32699	32691	32793	37191	34754	33551	
413	0	32690	32551	32647	32850	37191	34730	33551	
414	0	32756	32519	32723	32775	37226	34759	33541	
415	0	32769	32527	32722	32808	37206	34763	33536	
416	0	32759	32743	32566	32728	37215	34759	33543	
417	0	32715	32797	32728	32683	37190	34783	33527	
418	0	32769	32647	32756	32751	37198	34779	33543	
419	0	32800	32541	32654	32640	37202	34797	33534	
420	0	32744	32759	32741	32771	37211	34803	33523	
421	0	32847	32688	32629	32682	37221	34781	33543	
422	0	32767	32775	32557	32751	37190	34766	33555	
423	0	32814	32752	32504	32758	37208	34788	33541	
424	0	32741	32803	32552	32790	37212	34775	33541	
425	0	32775	32637	32647	32738	37191	34773	33537	
426	0	32758	32715	32663	32773	37208	34775	33543	
427	0	32775	32691	32721	32684	37221	34783	33553	
428	0	32793	32614	32569	32726	37223	34767	33543	
429	0	32775	32767	32659	32835	37202	34767	33542	
430	0	32770	32657	32667	32762	37186	34759	33543	
431	0	32734	32711	32725	32798	37218	34747	33558	
432	0	32736	32703	32621	32699	37202	34755	33554	
433	0	32747	32667	32684	32809	37223	34763	33547	
434	0	32760	32773	32605	32793	37220	34749	33554	
435	0	32798	32749	32662	32804	37214	34754	33533	
436	0	32804	32631	32546	32634	37223	34754	33531	
437	0	32766	32715	32657	32728	37211	34758	33523	
438	0	32736	32668	32681	32892	37214	34754	33537	
439	0	32800	32791	32569	32698	37221	34750	33531	
440	0	32754	32763	32588	32717	37200	34767	33526	
441	0	32809	32692	32655	32630	37209	34759	33543	
442	0	32762	32728	32669	32615	37223	34746	33556	
443	0	32759	32525	32687	32800	37209	34763	33537	
444	0	32786	32688	32720	32743	37176	34758	33536	
445	0	32775	32699	32798	32858	37221	34759	33545	
446	0	32838	32767	32640	32770	37203	34770	33543	
447	0	32782	32722	32531	32747	37214	34759	33551	
448	0	32751	32674	32564	32715	37231	34746	33543	
449	0	32792	32684	32645	32758	37215	34755	33527	
450	0	32772	32715	32623	32745	37199	34743	33542	
451	0	32787	32743	32794	32770	37200	34754	33553	
452	0	32698	32771	32593	32739	37179	34751	33555	
453	0	32745	32766	32564	32775	37221	34772	33538	
454	0	32756	32647	32537	32703	37246	34754	33560	
455	0	32804	32738	32518	32711	37211	34770	33542	
456	0	32864	32706	32647	32540	37211	34738	33543	
457	0	32722	32751	32807	32852	37253	34747	33536	
458	0	32489	32835	32791	33022	37213	34739	33529	
459	0	32789	32707	32748	32738	37221	34758	33515	
460	0	32856	32730	32684	32647	37217	34755	33519	
461	0	32773	32795	32715	32592	37255	34748	33551	
462	0	32736	32703	32552	32706	37229	34757	33526	
463	0	32787	32519	32658	32775	37187	34771	33525	
464	0	32718	32540	32691	32767	37191	34782	33522	
465	0	32718	32768	32526	32640	37197	34777	33520	
466	0	32730	32521	32708	32775	37233	34769	33550	
467	0	32814	32677	32638	32631	37233	34755	33539	
468	0	32742	32739	32678	32737	37239	34747	33548	
469	0	32736	32637	32640	32793	37221	34759	33551	
470	0	32774	32743	32742	32711	37204	34786	33543	
471	0	32765	32747	32672	32771	37225	34777	33561	
472	0	32744	32697	32681	32683	37219	34745	33563	
473	0	32770	32756	32698	32754	37223	34707	33554	
474	0	32775	32682	32734	32647	37210	34707	33551	
475	0	32721	32660	32655	32587	37211	34723	33530	
476	0	32775	32612	32671	32752	37246	34720	33531	
477	0	32772	32602	32703	32773	37206	34751	33512	
478	0	32775	32542	32696	32679	37241	34736	33533	
479	0	32755	32543	32742	32775	37183	34759	33535	
480	0	32775	32762	32652	32717	37245	34759	33536	
481	0	32731	32694	32545	32805	37202	34759	33549	
482	0	32727	32658	32621	32751	37203	34771	33544	
483	0	32738	32730	32637	32680	37217	34779	33565	
484	0	32766	32711	32748	32823	37200	34779	33543	
485	0	32788	32754	32675	32773	37233	34777	33538	
486	0	32764	32583	32571	32698	37240	34759	33558	
487	0	32741	32602	32734	32642	37243	34752	33543	
488	0	32783	32688	32565	32819	37191	34751	33549	
489	0	32784	32768	32667	32659	37206	34749	33552	
490	0	32732	32583	32536	32802	37200	34754	33555	
491	0	32748	32734	32673	32744	37225	34747	33543	
492	0	32744	32704	32612	32802	37229	34747	33557	
493	0	32752	32723	32573	32807	37196	34726	33547	
494	0	32758	32633	32519	32800	37219	34724	33532	
495	0	32794	32682	32765	32667	37241	34722	33540	
496	0	32754	32694	32678	32762	37237	34738	33530	
497	0	32752	32732	32775	32862	37228	34713	33533	
498	0	32775	32767	32698	32807	37247	34741	33542	
499	0	32794	32590	32603	32627	37206	34747	33535	
500	0	32769	32713	32642	32626	37206	34744	33549	
501	0	32736	32662	32532	32763	37255	34742	33557	
502	0	32774	32671	32775	32717	37219	34758	33527	
503	0	32760	32567	32525	32703	37219	34742	33547	
504	0	32781	32694	32733	32763	37239	34732	33539	
505	0	32730	32754	32670	32738	37215	34755	33530	
506	0	32742	32632	32633	32751	37211	34749	33542	
507	0	32764	32763	32709	32742	37227	34733	33551	
508	0	32772	32775	32466	32705	37216	34733	33559	
509	0	32706	32567	32487	32742	37221	34747	33548	
510	0	32728	32647	32543	32811	37178	34744	33538	
511	0	32760	32689	32670	32647	37210	34733	33548	
512	0	32700	32692	32598	32758	37233	34729	33558	
513	0	32773	32612	32606	32701	37221	34726	33557	
514	0	32775	32583	32505	32760	37239	34747	33558	
515	0	32832	32560	32643	32731	37233	34742	33565	
516	0	32742	32800	32678	32723	37230	34732	33543	
517	0	32744	32839	32595	32787	37223	34751	33540	
518	0	32789	32711	32690	32821	37223	34758	33529	
519	0	32722	32732	32636	32634	37210	34726	33538	
520	0	32804	32728	32602	32603	37246	34754	33561	
521	0	32824	32658	32635	32666	37202	34731	33557	
522	0	32806	32689	32639	32816	37222	34716	33559	
523	0	32723	32803	32749	32771	37252	34746	33545	
524	0	32775	32619	32647	32797	37235	34736	33538	
525	0	32808	32664	32608	32720	37191	34740	33522	
526	0	32745	32680	32562	32675	37191	34721	33537	
527	0	32710	32647	32635	32789	37219	34730	33531	
528	0	32766	32823	32678	32806	37190	34720	33540	
529	0	32772	32775	32763	32745	37231	34722	33552	
530	0	32794	32557	32643	32800	37225	34729	33560	
531	0	32775	32690	32636	32802	37210	34750	33543	
532	0	32713	32711	32518	32696	37191	34727	33573	
533	0	32790	32747	32775	32737	37245	34729	33548	
534	0	32800	32687	32550	32819	37211	34737	33554	
535	0	32784	32765	32664	32809	37215	34735	33550	
536	0	32760	32647	32753	32738	37224	34746	33543	
537	0	32713	32561	32514	32652	37202	34723	33559	
538	0	32790	32727	32748	32801	37227	34749	33565	
539	0	32699	32720	32518	32775	37191	34741	33560	
540	0	32775	32589	32704	32709	37255	34724	33552	
541	0	32743	32674	32476	32752	37210	34737	33542	
542	0	32772	32655	32640	32743	37208	34734	33561	
543	0	32752	32633	32796	32839	37220	34732	33566	
544	0	32808	32743	32706	32722	37207	34701	33581	
545	0	32773	32738	32481	32707	37229	34719	33567	
546	0	32928	32702	32485	32656	37191	34730	33548	
547	0	32800	32698	32573	32806	37219	34726	33558	
548	0	32496	32786	32832	32918	37233	34738	33543	
549	0	32722	32689	32671	32668	37221	34719	33543	
550	0	32882	32716	32686	32595	37239	34726	33528	
551	0	32804	32827	32622	32635	37247	34726	33535	
552	0	32764	32763	32731	32703	37237	34738	33543	
553	0	32810	32695	32495	32807	37239	34738	33551	
554	0	32768	32609	32647	32750	37227	34730	33536	
555	0	32712	32586	32601	32745	37218	34740	33551	
556	0	32802	32614	32664	32750	37233	34740	33574	
557	0	32772	32682	32608	32839	37191	34720	33569	
558	0	32793	32705	32748	32775	37197	34722	33533	
559	0	32775	32743	32717	32604	37236	34723	33555	
560	0	32808	32546	32518	32635	37218	34755	33577	
561	0	32775	32669	32662	32795	37229	34755	33586	
562	0	32792	32703	32571	32763	37222	34727	33589	
563	0	32784	32767	32563	32769	37209	34717	33575	
564	0	32730	32724	32511	32760	37247	34711	33538	
565	0	32800	32695	32731	32722	37207	34701	33529	
566	0	32772	32687	32644	32637	37267	34719	33539	
567	0	32724	32599	32760	32647	37254	34728	33539	
568	0	32762	32775	32755	32621	37219	34715	33554	
569	0	32750	32751	32626	32711	37246	34713	33553	
570	0	32749	32609	32614	32827	37242	34717	33538	
571	0	32742	32687	32596	32770	37213	34731	33562	
572	0	32661	32766	32548	32793	37237	34733	33543	
573	0	32774	32582	32686	32749	37210	34754	33536	
574	0	32754	32655	32576	32807	37250	34746	33558	
575	0	32770	32703	32614	32795	37243	34738	33529	
576	0	32750	32622	32731	32806	37214	34747	33546	
577	0	32736	32720	32690	32795	37214	34720	33541	
578	0	32754	32563	32532	32687	37187	34736	33546	
579	0	32758	32790	32668	32681	37215	34713	33558	
580	0	32819	32767	32677	32715	37254	34726	33563	
581	0	32775	32773	32711	32731	37225	34722	33557	
582	0	32762	32663	32775	32698	37245	34711	33568	
583	0	32771	32775	32691	32726	37224	34717	33559	
584	0	32808	32519	32734	32808	37246	34717	33575	
585	0	32681	32775	32667	32775	37247	34715	33561	
586	0	32775	32773	32718	32666	37233	34711	33563	
587	0	32775	32647	32754	32810	37229	34695	33539	
588	0	32834	32707	32676	32731	37255	34704	33538	
589	0	32765	32660	32634	32772	37223	34721	33554	
590	0	32736	32794	32595	32775	37219	34720	33562	
591	0	32744	32683	32480	32763	37223	34745	33558	
592	0	32720	32676	32724	32635	37220	34736	33564	
593	0	32824	32557	32582	32792	37215	34740	33561	
594	0	32788	32775	32671	32619	37235	34727	33540	
595	0	32730	32685	32647	32578	37224	34740	33535	
596	0	32775	32740	32493	32803	37227	34723	33536	
597	0	32752	32663	32547	32797	37227	34728	33558	
598	0	32798	32775	32669	32762	37215	34728	33546	
599	0	32771	32714	32605	32801	37214	34738	33549	
600	0	32768	32623	32598	32708	37235	34726	33555	
601	0	32805	32750	32768	32678	37210	34722	33550	
602	0	32734	32743	32692	32799	37218	34710	33573	
603	0	32768	32677	32519	32655	37232	34717	33570	
604	0	32768	32729	32612	32646	37233	34723	33568	
605	0	32796	32669	32751	32773	37221	34722	33573	
606	0	32736	32527	32742	32747	37199	34727	33555	
607	0	32810	32729	32633	32639	37235	34722	33553	
608	0	32718	32533	32679	32734	37217	34720	33560	
609	0	32697	32705	32506	32632	37235	34719	33552	
610	0	32796	32610	32691	32763	37231	34723	33552	
611	0	32724	32756	32595	32592	37224	34725	33558	
612	0	32800	32720	32583	32827	37235	34725	33543	
613	0	32818	32678	32787	32621	37243	34718	33571	
614	0	32739	32667	32695	32771	37225	34726	33547	
615	0	32736	32743	32724	32758	37229	34722	33553	
616	0	32760	32753	32752	32696	37247	34717	33549	
617	0	32772	32638	32583	32669	37239	34698	33558	
618	0	32788	32559	32531	32650	37263	34711	33546	
619	0	32775	32762	32703	32666	37219	34703	33560	
620	0	32728	32717	32626	32666	37202	34700	33553	
621	0	32797	32796	32748	32755	37211	34702	33575	
622	0	32722	32742	32551	32736	37207	34723	33563	
623	0	32749	32504	32536	32747	37235	34726	33555	
624	0	32752	32791	32711	32722	37245	34728	33563	
625	0	32794	32758	32720	32823	37233	34735	33538	
626	0	32766	32775	32571	32770	37231	34717	33556	
627	0	32786	32711	32605	32828	37241	34722	33563	
628	0	32726	32583	32714	32613	37241	34722	33571	
629	0	32790	32567	32719	32775	37238	34724	33566	
630	0	32760	32520	32660	32691	37212	34727	33563	
631	0	32788	32589	32803	32756	37229	34727	33567	
632	0	32775	32603	32750	32762	37232	34722	33555	
633	0	32798	32642	32528	32821	37237	34720	33563	
634	0	32760	32763	32550	32734	37225	34709	33560	
635	0	32780	32681	32633	32848	37233	34708	33568	
636	0	32750	32761	32731	32662	37210	34717	33567	
637	0	32839	32721	32615	32647	37224	34708	33565	
638	0	32818	32694	32647	32711	37241	34706	33555	
639	0	32744	32758	32665	32763	37208	34723	33547	
640	0	32562	32735	32807	32974	37233	34710	33536	
641	0	32600	32763	32662	32865	37237	34704	33542	
642	0	32892	32689	32621	32795	37219	34731	33536	
643	0	32792	32723	32639	32775	37249	34706	33558	
644	0	32790	32757	32623	32735	37235	34719	33559	
645	0	32732	32694	32741	32631	37238	34738	33549	
646	0	32729	32668	32688	32762	37207	34728	33545	
647	0	32788	32596	32737	32752	37203	34726	33551	
648	0	32749	32654	32536	32810	37233	34739	33568	
649	0	32726	32757	32698	32775	37255	34726	33571	
650	0	32766	32519	32621	32653	37236	34695	33555	
651	0	32742	32588	32723	32822	37208	34722	33542	
652	0	32741	32601	32511	32799	37255	34740	33565	
653	0	32796	32643	32663	32749	37237	34734	33592	
654	0	32758	32724	32679	32745	37267	34740	33581	
655	0	32828	32749	32531	32775	37217	34702	33587	
656	0	32775	32695	32710	32720	37218	34689	33537	
657	0	32796	32745	32492	32747	37223	34678	33558	
658	0	32786	32735	32699	32730	37223	34688	33536	
659	0	32826	32560	32642	32720	37202	34695	33553	
660	0	32818	32807	32620	32666	37235	34710	33542	
661	0	32742	32504	32743	32621	37259	34695	33563	
662	0	32789	32679	32582	32791	37215	34719	33543	
663	0	32770	32589	32530	32804	37248	34715	33560	
664	0	32793	32643	32786	32754	37239	34723	33537	
665	0	32773	32679	32748	32775	37214	34740	33563	
666	0	32711	32615	32738	32658	37216	34731	33570	
667	0	32802	32611	32690	32843	37231	34722	33571	
668	0	32710	32640	32647	32626	37191	34733	33572	
669	0	32740	32723	32658	32755	37228	34718	33555	
670	0	32825	32534	32647	32803	37198	34720	33561	
671	0	32795	32647	32450	32631	37229	34719	33572	
672	0	32772	32529	32653	32767	37221	34723	33563	
673	0	32775	32573	32592	32795	37228	34710	33555	
674	0	32775	32731	32638	32755	37261	34729	33549	
675	0	32800	32527	32489	32728	37231	34694	33564	
676	0	32791	32775	32560	32646	37233	34715	33549	
677	0	32775	32724	32550	32775	37244	34692	33547	
678	0	32746	32765	32542	32749	37252	34701	33544	
679	0	32758	32695	32695	32720	37250	34700	33526	
680	0	32749	32659	32698	32790	37261	34706	33543	
681	0	32804	32775	32677	32774	37255	34719	33561	
682	0	32765	32679	32714	32707	37221	34715	33553	
683	0	32820	32788	32621	32644	37216	34713	33577	
684	0	32742	32789	32620	32769	37242	34717	33565	
685	0	32766	32549	32451	32775	37232	34717	33561	
686	0	32790	32618	32688	32762	37246	34722	33549	
687	0	32756	32637	32707	32745	37230	34710	33567	
688	0	32740	32608	32667	32775	37207	34720	33537	
689	0	32760	32711	32542	32765	37233	34737	33542	
690	0	32798	32547	32735	32775	37217	34713	33552	
691	0	32768	32605	32736	32647	37215	34710	33548	
692	0	32754	32765	32691	32828	37241	34720	33541	
693	0	32800	32647	32694	32740	37253	34701	33565	
694	0	32745	32726	32651	32614	37239	34726	33567	
695	0	32752	32858	32617	32773	37245	34715	33571	
696	0	32806	32721	32619	32775	37226	34706	33562	
697	0	32792	32593	32571	32642	37247	34709	33563	
698	0	32766	32741	32726	32763	37245	34713	33557	
699	0	32762	32748	32658	32803	37228	34731	33554	
700	0	32758	32775	32658	32737	37241	34695	33571	
701	0	32810	32573	32768	32754	37215	34710	33552	
702	0	32724	32711	32531	32628	37287	34714	33543	
703	0	32796	32673	32556	32801	37235	34710	33571	
704	0	32746	32563	32672	32647	37244	34734	33566	
705	0	32812	32730	32711	32583	37266	34711	33541	
706	0	32796	32711	32667	32745	37251	34713	33567	
707	0	32724	32714	32769	32802	37233	34693	33546	
708	0	32775	32662	32694	32790	37230	34707	33543	
709	0	32790	32644	32658	32681	37243	34713	33541	
710	0	32768	32807	32740	32711	37231	34723	33559	
711	0	32752	32775	32603	32771	37218	34727	33549	
712	0	32768	32763	32595	32765	37228	34711	33558	
713	0	32830	32647	32505	32686	37207	34704	33554	
714	0	32754	32637	32543	32750	37243	34733	33553	
715	0	32775	32704	32629	32635	37244	34725	33554	
716	0	32762	32571	32534	32715	37202	34725	33546	
717	0	32682	32730	32715	32832	37216	34723	33552	
718	0	32784	32794	32758	32826	37211	34717	33539	
719	0	32775	32754	32592	32640	37229	34722	33556	
720	0	32768	32719	32734	32859	37206	34726	33555	
721	0	32764	32599	32679	32807	37233	34729	33550	
722	0	32773	32771	32773	32595	37241	34728	33552	
723	0	32821	32698	32742	32687	37230	34719	33573	
724	0	32759	32609	32725	32756	37229	34716	33573	
725	0	32732	32732	32561	32798	37211	34733	33546	
726	0	32775	32673	32558	32799	37233	34727	33565	
727	0	32782	32710	32495	32767	37217	34724	33555	
728	0	32835	32543	32743	32773	37229	34736	33573	
729	0	32859	32706	32669	32668	37229	34729	33555	
730	0	32790	32581	32593	32621	37210	34726	33542	
731	0	32480	32793	32946	32954	37223	34726	33551	
732	0	32728	32556	32705	32788	37227	34732	33535	
733	0	32878	32775	32671	32671	37198	34697	33539	
734	0	32827	32752	32563	32790	37255	34731	33520	
735	0	32771	32647	32591	32755	37191	34742	33529	
736	0	32789	32747	32595	32768	37223	34739	33548	
737	0	32750	32803	32678	32691	37253	34752	33549	
738	0	32744	32754	32525	32732	37222	34748	33531	
739	0	32800	32677	32742	32685	37239	34730	33565	
740	0	32786	32662	32635	32795	37254	34726	33563	
741	0	32741	32690	32519	32749	37199	34733	33542	
742	0	32690	32719	32574	32790	37217	34736	33558	
743	0	32789	32677	32609	32835	37235	34759	33561	
744	0	32728	32762	32625	32730	37227	34754	33561	
745	0	32749	32733	32551	32686	37203	34740	33569	
746	0	32782	32720	32647	32727	37219	34695	33560	
747	0	32740	32545	32704	32766	37216	34695	33540	
748	0	32788	32578	32535	32642	37216	34701	33526	
749	0	32775	32710	32647	32748	37191	34716	33522	
750	0	32784	32691	32742	32812	37211	34725	33523	
751	0	32766	32721	32681	32798	37210	34724	33511	
752	0	32738	32677	32632	32806	37219	34731	33548	
753	0	32717	32710	32730	32803	37242	34742	33543	
754	0	32712	32798	32647	32723	37229	34750	33551	
755	0	32784	32561	32646	32675	37202	34759	33557	
756	0	32775	32730	32502	32706	37211	34763	33545	
757	0	32736	32695	32545	32757	37191	34775	33543	
758	0	32786	32727	32612	32675	37237	34768	33536	
759	0	32760	32637	32737	32702	37206	34754	33553	
760	0	32765	32667	32631	32791	37225	34742	33544	
761	0	32795	32726	32615	32860	37206	34743	33550	
762	0	32754	32561	32727	32720	37191	34754	33547	
763	0	32758	32694	32603	32720	37209	34735	33547	
764	0	32743	32752	32651	32692	37191	34736	33560	
765	0	32720	32558	32679	32768	37211	34737	33543	
766	0	32784	32710	32582	32711	37220	34735	33531	
767	0	32715	32819	32712	32667	37220	34738	33536	
768	0	32738	32625	32569	32797	37216	34723	33511	
769	0	32781	32775	32647	32699	37225	34719	33531	
770	0	32740	32775	32467	32835	37235	34735	33543	
771	0	32758	32667	32685	32775	37225	34759	33542	
772	0	32775	32640	32495	32627	37231	34751	33553	
773	0	32742	32735	32583	32775	37191	34746	33533	
774	0	32752	32767	32671	32792	37237	34748	33555	
775	0	32742	32576	32720	32793	37237	34745	33536	
776	0	32750	32687	32518	32759	37208	34751	33531	
777	0	32788	32678	32647	32704	37221	34751	33537	
778	0	32734	32720	32658	32791	37233	34733	33538	
779	0	32792	32630	32758	32726	37219	34750	33533	
780	0	32764	32684	32587	32727	37215	34758	33538	
781	0	32745	32720	32610	32791	37211	34766	33547	
782	0	32728	32818	32511	32674	37190	34749	33536	
783	0	32759	32677	32542	32806	37243	34754	33565	
784	0	32800	32758	32767	32761	37215	34766	33539	
785	0	32788	32555	32647	32725	37222	34748	33562	
786	0	32713	32698	32687	32663	37218	34759	33542	
787	0	32768	32725	32524	32816	37208	34759	33539	
788	0	32702	32729	32694	32654	37191	34739	33543	
789	0	32775	32647	32640	32773	37225	34759	33539	
790	0	32802	32679	32647	32802	37206	34756	33543	
791	0	32736	32663	32672	32787	37209	34754	33543	
792	0	32802	32745	32726	32674	37227	34751	33555	
793	0	32775	32605	32555	32726	37223	34774	33538	
794	0	32732	32709	32720	32669	37208	34754	33548	
795	0	32826	32775	32698	32775	37225	34751	33541	
796	0	32730	32794	32726	32666	37189	34752	33542	
797	0	32775	32738	32632	32792	37215	34752	33530	
798	0	32746	32736	32711	32698	37245	34755	33539	
799	0	32750	32714	32725	32647	37233	34740	33528	
800	0	32804	32717	32710	32643	37237	34748	33526	
801	0	32768	32541	32589	32759	37202	34750	33539	
802	0	32715	32739	32751	32767	37200	34746	33539	
803	0	32800	32753	32711	32747	37202	34758	33542	
804	0	32792	32666	32592	32799	37214	34765	33530	
805	0	32760	32722	32705	32738	37206	34768	33525	
806	0	32749	32711	32583	32746	37218	34754	33534	
807	0	32762	32754	32645	32839	37206	34743	33526	
808	0	32771	32511	32509	32727	37191	34755	33539	
809	0	32766	32775	32738	32747	37233	34767	33526	
810	0	32786	32720	32630	32771	37221	34759	33543	
811	0	32806	32724	32723	32642	37221	34750	33540	
812	0	32745	32702	32595	32654	37254	34750	33563	
813	0	32828	32711	32718	32655	37208	34755	33544	
814	0	32907	32656	32592	32530	37191	34767	33537	
815	0	32775	32608	32538	32629	37224	34754	33522	
816	0	32549	32756	32708	32908	37170	34746	33530	
817	0	32665	32507	32626	32896	37217	34753	33523	
818	0	32879	32773	32612	32635	37227	34733	33548	
819	0	32810	32674	32663	32713	37237	34740	33538	
820	0	32775	32775	32617	32598	37211	34752	33543	
821	0	32791	32743	32771	32792	37218	34747	33536	
822	0	32809	32497	32807	32753	37204	34758	33519	
823	0	32754	32729	32669	32683	37187	34751	33539	
824	0	32752	32747	32587	32738	37225	34759	33554	
825	0	32775	32717	32478	32774	37237	34739	33557	
826	0	32749	32788	32658	32775	37209	34759	33543	
827	0	32739	32594	32587	32637	37237	34742	33542	
828	0	32790	32580	32576	32676	37199	34771	33548	
829	0	32775	32726	32742	32767	37237	34783	33563	
830	0	32806	32576	32477	32828	37206	34742	33556	
831	0	32829	32790	32684	32671	37202	34717	33566	
832	0	32765	32775	32732	32672	37233	34726	33530	
833	0	32754	32628	32688	32759	37226	34723	33506	
834	0	32800	32605	32766	32799	37222	34728	33508	
835	0	32727	32684	32641	32771	37227	34729	33523	
836	0	32731	32717	32775	32663	37223	34741	33533	
837	0	32743	32690	32668	32733	37210	34735	33560	
838	0	32811	32554	32619	32793	37237	34739	33541	
839	0	32756	32833	32699	32719	37227	34758	33557	
840	0	32738	32700	32583	32803	37217	34767	33542	
841	0	32775	32583	32510	32617	37221	34791	33536	
842	0	32728	32748	32583	32775	37222	34776	33565	
843	0	32744	32511	32647	32764	37202	34759	33549	
844	0	32786	32698	32723	32692	37191	34759	33542	
845	0	32717	32727	32461	32725	37226	34755	33553	
846	0	32797	32639	32496	32729	37224	34752	33551	
847	0	32790	32549	32535	32745	37234	34744	33547	
848	0	32764	32694	32702	32686	37211	34743	33543	
849	0	32800	32792	32690	32655	37223	34738	33545	
850	0	32768	32562	32669	32795	37231	34726	33543	
851	0	32763	32755	32676	32816	37240	34733	33543	
852	0	32753	32717	32519	32759	37222	34738	33543	
853	0	32745	32756	32579	32647	37216	34720	33528	
854	0	32827	32609	32629	32839	37223	34727	33516	
855	0	32744	32721	32593	32789	37233	34738	33543	
856	0	32773	32513	32692	32876	37232	34758	33537	
857	0	32740	32768	32682	32775	37226	34743	33563	
858	0	32768	32607	32677	32743	37231	34743	33543	
859	0	32772	32747	32524	32810	37230	34752	33536	
860	0	32802	32535	32582	32629	37211	34747	33536	
861	0	32805	32683	32552	32768	37225	34750	33517	
862	0	32752	32533	32667	32754	37211	34747	33531	
863	0	32790	32727	32626	32723	37202	34753	33528	
864	0	32754	32775	32555	32766	37233	34744	33530	
865	0	32752	32711	32711	32631	37225	34729	33527	
866	0	32720	32473	32617	32663	37223	34750	33531	
867	0	32805	32501	32628	32829	37233	34731	33550	
868	0	32733	32767	32631	32775	37219	34742	33551	
869	0	32760	32749	32743	32737	37200	34742	33558	
870	0	32769	32772	32567	32644	37198	34727	33562	
871	0	32772	32546	32695	32659	37211	34743	33553	
872	0	32786	32694	32471	32814	37223	34726	33551	
873	0	32760	32509	32711	32663	37282	34733	33555	
874	0	32734	32583	32715	32691	37255	34735	33543	
875	0	32742	32547	32775	32769	37217	34727	33549	
876	0	32818	32549	32569	32647	37231	34713	33544	
877	0	32738	32593	32727	32793	37213	34745	33526	
878	0	32723	32745	32466	32735	37202	34724	33544	
879	0	32748	32692	32729	32718	37221	34727	33551	
880	0	32801	32583	32662	32739	37215	34726	33549	
881	0	32736	32666	32647	32791	37229	34742	33544	
882	0	32747	32775	32464	32768	37226	34727	33540	
883	0	32786	32789	32732	32642	37241	34727	33536	
884	0	32772	32558	32623	32751	37237	34738	33528	
885	0	32786	32590	32674	32789	37233	34711	33543	
886	0	32795	32670	32581	32767	37240	34729	33531	
887	0	32758	32599	32600	32653	37224	34734	33541	
888	0	32771	32555	32749	32640	37219	34729	33536	
889	0	32748	32751	32691	32759	37222	34737	33552	
890	0	32786	32679	32655	32773	37207	34729	33549	
891	0	32816	32691	32723	32696	37215	34733	33543	
892	0	32757	32838	32635	32743	37205	34710	33549	
893	0	32769	32547	32546	32834	37215	34734	33531	
894	0	32800	32607	32702	32803	37235	34723	33561	
895	0	32799	32647	32609	32714	37197	34716	33555	
896	0	32775	32634	32515	32663	37202	34725	33567	
897	0	32784	32775	32431	32711	37200	34723	33569	
898	0	32769	32798	32698	32628	37224	34708	33555	
899	0	32676	32642	32655	32799	37229	34738	33528	
900	0	32541	32683	32831	32846	37235	34724	33526	
901	0	32854	32709	32506	32688	37226	34727	33530	
902	0	32866	32803	32681	32728	37224	34707	33543	
903	0	32792	32767	32511	32698	37239	34733	33527	
904	0	32775	32603	32765	32728	37229	34715	33543	
905	0	32784	32748	32634	32758	37191	34739	33543	
906	0	32789	32638	32739	32607	37233	34754	33529	
907	0	32773	32680	32673	32673	37227	34724	33551	
908	0	32798	32705	32551	32816	37249	34739	33542	
909	0	32728	32751	32694	32797	37248	34723	33535	
910	0	32765	32743	32560	32701	37223	34728	33511	
911	0	32719	32749	32605	32694	37200	34740	33555	
912	0	32751	32711	32670	32683	37219	34759	33571	
913	0	32740	32541	32543	32790	37241	34759	33555	
914	0	32744	32711	32691	32748	37225	34706	33571	
915	0	32781	32723	32775	32759	37227	34703	33549	
916	0	32749	32742	32656	32703	37219	34695	33553	
917	0	32769	32730	32639	32816	37209	34709	33523	
918	0	32801	32705	32684	32728	37223	34715	33540	
919	0	32748	32700	32590	32743	37223	34731	33518	
920	0	32775	32737	32707	32711	37242	34704	33543	
921	0	32773	32679	32758	32602	37213	34704	33541	
922	0	32824	32706	32615	32615	37239	34731	33560	
923	0	32758	32739	32538	32655	37209	34746	33543	
924	0	32766	32742	32663	32726	37211	34755	33539	
925	0	32812	32738	32748	32775	37247	34756	33538	
926	0	32790	32756	32501	32854	37225	34758	33546	
927	0	32710	32745	32731	32775	37233	34736	33536	
928	0	32786	32775	32657	32732	37231	34723	33543	
929	0	32738	32699	32525	32589	37219	34735	33550	
930	0	32793	32727	32723	32807	37224	34733	33542	
931	0	32733	32640	32660	32743	37233	34731	33536	
932	0	32816	32603	32669	32798	37228	34713	33553	
933	0	32805	32615	32690	32745	37270	34710	33559	
934	0	32752	32586	32619	32754	37239	34713	33539	
935	0	32782	32732	32550	32820	37247	34694	33558	
936	0	32806	32817	32655	32771	37229	34719	33533	
937	0	32736	32769	32718	32700	37215	34705	33551	
938	0	32800	32699	32660	32766	37223	34690	33547	
939	0	32713	32535	32640	32797	37231	34687	33543	
940	0	32768	32720	32641	32761	37236	34724	33526	
941	0	32761	32615	32658	32724	37235	34735	33538	
942	0	32765	32575	32552	32690	37214	34723	33543	
943	0	32775	32739	32632	32795	37210	34711	33575	
944	0	32768	32751	32711	32745	37247	34722	33561	
945	0	32767	32623	32508	32699	37235	34710	33554	
946	0	32822	32786	32735	32642	37243	34721	33530	
947	0	32766	32684	32485	32687	37216	34722	33543	
948	0	32738	32719	32647	32662	37214	34727	33541	
949	0	32722	32662	32558	32764	37229	34736	33522	
950	0	32772	32602	32752	32789	37233	34731	33534	
951	0	32768	32688	32694	32775	37229	34731	33543	
952	0	32730	32737	32470	32634	37223	34717	33547	
953	0	32772	32732	32501	32775	37261	34711	33543	
954	0	32820	32765	32538	32775	37243	34695	33559	
955	0	32828	32715	32598	32790	37252	34721	33535	
956	0	32747	32763	32701	32824	37226	34717	33563	
957	0	32796	32758	32594	32754	37229	34710	33551	
958	0	32769	32737	32583	32804	37242	34718	33557	
959	0	32756	32720	32534	32742	37253	34710	33558	
960	0	32762	32734	32631	32647	37223	34706	33533	
961	0	32748	32721	32677	32675	37221	34712	33565	
962	0	32784	32583	32577	32707	37233	34710	33560	
963	0	32754	32647	32722	32755	37235	34710	33563	
964	0	32736	32590	32786	32709	37237	34711	33550	
965	0	32737	32510	32621	32735	37218	34703	33543	
966	0	32730	32719	32679	32677	37253	34695	33557	
967	0	32791	32762	32636	32765	37231	34706	33549	
968	0	32798	32758	32534	32694	37235	34713	33561	
969	0	32810	32692	32562	32680	37217	34715	33542	
970	0	32808	32795	32699	32771	37227	34723	33541	
971	0	32794	32674	32579	32725	37245	34695	33558	
972	0	32790	32730	32702	32814	37214	34707	33560	
973	0	32797	32711	32639	32737	37233	34717	33537	
974	0	32775	32735	32642	32793	37225	34711	33552	
975	0	32765	32725	32694	32705	37221	34700	33558	
976	0	32808	32749	32519	32658	37235	34706	33549	
977	0	32760	32723	32488	32662	37237	34720	33571	
978	0	32830	32555	32704	32794	37239	34725	33548	
979	0	32720	32555	32483	32799	37222	34711	33538	
980	0	32794	32732	32530	32611	37216	34717	33557	
981	0	32747	32823	32537	32693	37233	34695	33554	
982	0	32774	32726	32630	32726	37237	34706	33571	
983	0	32813	32671	32501	32716	37229	34717	33558	
984	0	32782	32720	32592	32652	37229	34695	33572	
985	0	32890	32743	32479	32771	37230	34707	33557	
986	0	32704	32811	32659	32877	37208	34707	33555	
987	0	32486	32775	32720	32831	37225	34711	33547	
988	0	32807	32530	32547	32749	37200	34706	33531	
989	0	32829	32738	32598	32551	37207	34700	33543	
990	0	32796	32738	32586	32845	37219	34717	33553	
991	0	32762	32703	32775	32711	37229	34707	33552	
992	0	32758	32543	32633	32745	37221	34707	33557	
993	0	32712	32775	32595	32655	37213	34717	33539	
994	0	32806	32530	32519	32759	37188	34734	33539	
995	0	32720	32567	32775	32775	37255	34725	33551	
996	0	32736	32566	32566	32699	37239	34720	33569	
997	0	32768	32703	32594	32709	37186	34695	33531	
998	0	32790	32677	32576	32664	37221	34704	33560	
999	0	32794	32770	32691	32795	37240	34747	33577	
1000	0	32769	32550	32598	32692	37247	34747	33581	
1001	0	32784	32790	32674	32810	37223	34717	33586	
1002	0	32824	32706	32739	32748	37244	34690	33564	
1003	0	32764	32731	32607	32775	37227	34685	33547	
1004	0	32696	32631	32647	32771	37237	34689	33548	
1005	0	32766	32568	32602	32786	37230	34706	33535	
1006	0	32827	32669	32647	32571	37225	34695	33543	
1007	0	32799	32710	32640	32745	37237	34696	33538	
1008	0	32797	32573	32729	32723	37221	34695	33536	
1009	0	32744	32742	32587	32719	37225	34695	33558	
1010	0	32820	32711	32600	32767	37237	34716	33557	
1011	0	32775	32759	32609	32818	37246	34711	33555	
1012	0	32786	32680	32689	32747	37211	34715	33559	
1013	0	32794	32775	32711	32679	37233	34742	33534	
1014	0	32742	32685	32602	32805	37247	34714	33549	
1015	0	32796	32688	32624	32681	37247	34708	33526	
1016	0	32745	32741	32714	32769	37219	34690	33552	
1017	0	32749	32655	32502	32669	37229	34692	33566	
1018	0	32786	32647	32575	32759	37218	34719	33561	
1019	0	32789	32558	32647	32775	37237	34711	33577	
1020	0	32770	32766	32660	32845	37210	34714	33566	
1021	0	32750	32562	32607	32659	37227	34694	33538	
1022	0	32768	32691	32596	32751	37275	34688	33568	
1023	0	32741	32711	32599	32719	37237	34688	33564	
1024	0	32768	32743	32609	32775	37225	34679	33540	
1025	0	32722	32743	32687	32771	37225	34691	33553	
1026	0	32797	32646	32727	32818	37255	34694	33520	
1027	0	32736	32731	32691	32775	37251	34690	33537	
1028	0	32758	32775	32709	32794	37230	34715	33551	
1029	0	32724	32583	32436	32666	37273	34695	33557	
1030	0	32752	32711	32711	32635	37237	34719	33573	
1031	0	32722	32519	32670	32761	37241	34715	33573	
1032	0	32754	32711	32679	32734	37189	34698	33559	
1033	0	32754	32775	32793	32810	37252	34695	33551	
1034	0	32775	32643	32669	32614	37235	34695	33542	
1035	0	32768	32775	32671	32731	37208	34703	33548	
1036	0	32775	32610	32707	32739	37231	34711	33550	
1037	0	32758	32687	32606	32786	37247	34706	33536	
1038	0	32745	32702	32630	32758	37219	34715	33560	
1039	0	32732	32799	32774	32775	37223	34690	33553	
1040	0	32764	32583	32662	32768	37220	34722	33555	
1041	0	32804	32743	32704	32679	37231	34713	33577	
1042	0	32804	32743	32740	32667	37225	34710	33569	
1043	0	32774	32701	32561	32715	37235	34698	33570	
1044	0	32768	32787	32686	32717	37243	34702	33549	
1045	0	32797	32727	32615	32765	37247	34727	33557	
1046	0	32784	32621	32570	32801	37240	34704	33565	
1047	0	32813	32710	32626	32764	37211	34711	33564	
1048	0	32768	32543	32659	32658	37255	34695	33537	
1049	0	32775	32711	32700	32806	37252	34706	33569	
1050	0	32791	32795	32594	32611	37230	34707	33574	
1051	0	32761	32681	32548	32727	37240	34707	33558	
1052	0	32734	32604	32678	32795	37241	34709	33543	
1053	0	32770	32734	32645	32705	37248	34695	33561	
1054	0	32848	32732	32640	32754	37199	34703	33561	
1055	0	32812	32726	32717	32553	37235	34691	33554	
1056	0	32731	32698	32598	32729	37253	34713	33544	
1057	0	32773	32790	32758	32647	37235	34695	33560	
1058	0	32795	32718	32681	32743	37228	34715	33551	
1059	0	32762	32848	32517	32706	37222	34711	33539	
1060	0	32764	32592	32630	32730	37222	34719	33555	
1061	0	32754	32719	32715	32803	37242	34710	33555	
1062	0	32770	32763	32775	32775	37244	34695	33542	
1063	0	32775	32604	32587	32767	37254	34699	33560	
1064	0	32727	32789	32725	32755	37233	34710	33542	
1065	0	32828	32711	32666	32807	37215	34703	33560	
1066	0	32765	32627	32623	32599	37208	34723	33543	
1067	0	32738	32634	32518	32731	37221	34708	33546	
1068	0	32775	32745	32738	32806	37238	34695	33562	
1069	0	32784	32567	32749	32768	37226	34717	33549	
1070	0	32810	32524	32666	32800	37217	34704	33567	
1071	0	32726	32775	32717	32599	37223	34695	33563	
1072	0	32754	32767	32530	32732	37235	34715	33559	
1073	0	32758	32775	32748	32695	37227	34695	33568	
1074	0	32819	32643	32492	32623	37203	34695	33575	
1075	0	32800	32719	32770	32727	37209	34708	33554	
1076	0	32876	32647	32518	32626	37211	34700	33561	
1077	0	32669	32656	32647	32876	37217	34713	33544	
1078	0	32459	32793	32760	32951	37233	34695	33543	
1079	0	32740	32707	32744	32647	37255	34695	33548	
1080	0	32875	32746	32515	32654	37216	34695	33558	
1081	0	32752	32737	32595	32658	37253	34695	33543	
1082	0	32758	32662	32681	32796	37237	34717	33560	
1083	0	32736	32717	32699	32614	37237	34722	33559	
1084	0	32816	32550	32619	32775	37223	34711	33549	
1085	0	32772	32761	32594	32743	37209	34725	33567	
1086	0	32788	32639	32504	32806	37255	34704	33575	
1087	0	32728	32775	32682	32739	37262	34694	33567	
1088	0	32775	32678	32679	32725	37240	34675	33551	
1089	0	32745	32687	32726	32832	37231	34723	33563	
1090	0	32796	32788	32691	32791	37237	34738	33586	
1091	0	32800	32526	32494	32713	37242	34731	33594	
1092	0	32735	32546	32701	32775	37233	34727	33561	
1093	0	32702	32743	32699	32771	37229	34674	33568	
1094	0	32771	32775	32581	32741	37255	34682	33531	
1095	0	32751	32711	32691	32798	37240	34681	33546	
1096	0	32740	32698	32640	32771	37250	34675	33540	
1097	0	32775	32775	32607	32850	37223	34694	33530	
1098	0	32764	32682	32677	32786	37227	34695	33522	
1099	0	32762	32571	32551	32775	37233	34695	33546	
1100	0	32748	32754	32605	32775	37239	34713	33567	
1101	0	32752	32737	32614	32743	37230	34728	33553	
1102	0	32790	32742	32574	32762	37209	34722	33560	
1103	0	32758	32543	32640	32644	37233	34730	33552	
1104	0	32734	32569	32682	32749	37266	34715	33571	
1105	0	32792	32769	32555	32735	37240	34739	33559	
1106	0	32768	32727	32715	32839	37222	34747	33543	
1107	0	32769	32528	32662	32726	37221	34728	33557	
1108	0	32740	32671	32663	32729	37255	34695	33571	
1109	0	32784	32756	32702	32665	37215	34713	33569	
1110	0	32762	32743	32786	32692	37231	34679	33577	
1111	0	32712	32692	32638	32803	37255	34685	33575	
1112	0	32812	32768	32647	32824	37222	34690	33561	
1113	0	32707	32708	32667	32703	37239	34695	33575	
1114	0	32797	32596	32646	32791	37233	34689	33567	
1115	0	32719	32711	32673	32764	37255	34691	33561	
1116	0	32758	32486	32666	32665	37255	34687	33547	
1117	0	32786	32807	32763	32664	37219	34695	33542	
1118	0	32763	32807	32687	32766	37243	34695	33548	
1119	0	32832	32740	32504	32747	37254	34724	33549	
1120	0	32738	32626	32633	32740	37239	34715	33550	
1121	0	32736	32580	32731	32739	37255	34704	33575	
1122	0	32787	32792	32503	32738	37255	34717	33545	
1123	0	32746	32640	32674	32567	37223	34717	33545	
1124	0	32801	32665	32595	32729	37244	34709	33547	
1125	0	32792	32615	32738	32802	37231	34732	33534	
1126	0	32691	32648	32751	32633	37244	34715	33539	
1127	0	32756	32642	32560	32662	37223	34695	33555	
1128	0	32790	32720	32725	32775	37237	34717	33555	
1129	0	32728	32749	32514	32775	37239	34720	33567	
1130	0	32824	32775	32588	32751	37226	34713	33581	
1131	0	32738	32799	32823	32717	37224	34717	33577	
1132	0	32710	32711	32694	32615	37246	34717	33555	
1133	0	32800	32561	32770	32664	37245	34699	33561	
1134	0	32802	32687	32664	32834	37235	34706	33579	
1135	0	32744	32693	32578	32699	37211	34710	33575	
1136	0	32800	32690	32557	32670	37223	34722	33547	
1137	0	32756	32753	32590	32705	37227	34720	33556	
1138	0	32774	32742	32729	32698	37245	34719	33551	
1139	0	32785	32775	32696	32690	37249	34734	33556	
1140	0	32716	32744	32701	32833	37221	34727	33547	
1141	0	32780	32721	32695	32761	37230	34722	33541	
1142	0	32745	32775	32720	32795	37209	34726	33549	
1143	0	32727	32578	32671	32631	37255	34715	33549	
1144	0	32772	32749	32688	32645	37231	34725	33539	
1145	0	32752	32743	32484	32592	37250	34702	33568	
1146	0	32803	32743	32775	32763	37250	34719	33538	
1147	0	32781	32822	32732	32766	37225	34713	33539	
1148	0	32844	32732	32624	32802	37220	34706	33539	
1149	0	32748	32676	32550	32768	37255	34717	33536	
1150	0	32752	32667	32751	32795	37237	34750	33537	
1151	0	32740	32553	32631	32672	37239	34730	33520	
1152	0	32775	32726	32534	32822	37239	34727	33551	
1153	0	32762	32549	32662	32775	37254	34722	33560	
1154	0	32740	32710	32679	32668	37254	34727	33546	
1155	0	32775	32837	32695	32631	37233	34713	33566	
1156	0	32790	32679	32539	32775	37217	34722	33562	
1157	0	32796	32787	32679	32748	37255	34723	33543	
1158	0	32772	32710	32520	32674	37191	34740	33555	
1159	0	32720	32688	32505	32764	37247	34736	33560	
1160	0	32792	32711	32659	32667	37196	34722	33552	
1161	0	32711	32775	32657	32701	37225	34720	33550	
1162	0	32792	32525	32577	32690	37206	34714	33546	
1163	0	32730	32605	32681	32791	37217	34727	33554	
1164	0	32816	32594	32622	32669	37195	34726	33563	
1165	0	32738	32742	32525	32839	37237	34727	33568	
1166	0	32840	32623	32709	32763	37211	34731	33538	
1167	0	32858	32774	32595	32685	37203	34730	33541	
1168	0	32773	32678	32554	32818	37203	34731	33542	
1169	0	32628	32795	32822	32915	37225	34715	33537	
1170	0	32626	32769	32879	32914	37233	34722	33531	
1171	0	32864	32621	32506	32594	37206	34713	33535	
1172	0	32872	32675	32620	32566	37210	34725	33536	
1173	0	32784	32795	32647	32675	37219	34719	33546	
1174	0	32774	32711	32670	32770	37246	34743	33542	
1175	0	32802	32747	32612	32639	37227	34729	33537	
1176	0	32809	32667	32670	32762	37208	34754	33538	
1177	0	32717	32654	32763	32678	37241	34758	33550	
1178	0	32775	32680	32806	32662	37214	34752	33577	
1179	0	32784	32719	32672	32775	37221	34727	33570	
1180	0	32698	32770	32619	32762	37237	34730	33538	
1181	0	32809	32727	32644	32624	37242	34713	33571	
1182	0	32810	32552	32775	32855	37233	34750	33574	
1183	0	32726	32791	32563	32744	37231	34731	33577	
1184	0	32775	32739	32678	32751	37231	34713	33569	
1185	0	32765	32687	32651	32811	37223	34704	33541	
1186	0	32754	32691	32513	32667	37237	34695	33541	
1187	0	32752	32730	32660	32763	37211	34711	33509	
1188	0	32807	32551	32621	32735	37240	34717	33519	
1189	0	32766	32829	32705	32653	37225	34715	33536	
1190	0	32813	32697	32603	32568	37223	34726	33531	
1191	0	32764	32627	32690	32811	37219	34726	33536	
1192	0	32793	32727	32657	32647	37255	34758	33543	
1193	0	32768	32723	32684	32614	37223	34770	33558	
1194	0	32748	32747	32656	32752	37210	34755	33557	
1195	0	32748	32773	32671	32719	37231	34774	33547	
1196	0	32784	32707	32583	32686	37242	34774	33554	
1197	0	32749	32487	32678	32747	37188	34782	33528	
1198	0	32810	32769	32609	32798	37209	34752	33548	
1199	0	32798	32742	32715	32615	37219	34744	33551	
1200	0	32757	32710	32770	32681	37173	34731	33543	
1201	0	32770	32671	32637	32695	37230	34729	33559	
1202	0	32769	32590	32583	32734	37217	34723	33569	
1203	0	32728	32711	32743	32823	37255	34723	33551	
1204	0	32744	32587	32683	32632	37235	34720	33548	
1205	0	32720	32613	32671	32775	37223	34717	33555	
1206	0	32784	32646	32519	32699	37192	34732	33541	
1207	0	32796	32605	32689	32626	37251	34706	33559	
1208	0	32758	32775	32757	32599	37239	34722	33541	
1209	0	32764	32758	32658	32739	37253	34743	33555	
1210	0	32772	32736	32546	32816	37237	34740	33558	
1211	0	32762	32574	32666	32817	37239	34738	33560	
1212	0	32828	32731	32655	32663	37239	34733	33554	
1213	0	32743	32679	32823	32762	37229	34743	33539	
1214	0	32788	32662	32489	32786	37219	34727	33543	
1215	0	32708	32694	32621	32703	37223	34750	33536	
1216	0	32768	32691	32612	32756	37247	34749	33555	
1217	0	32765	32590	32803	32765	37233	34742	33538	
1218	0	32742	32770	32699	32613	37208	34756	33543	
1219	0	32775	32623	32662	32635	37215	34747	33548	
1220	0	32749	32766	32470	32739	37208	34745	33551	
1221	0	32708	32745	32621	32694	37202	34749	33543	
1222	0	32760	32690	32706	32762	37206	34738	33563	
1223	0	32732	32730	32647	32642	37223	34754	33543	
1224	0	32772	32662	32493	32720	37233	34740	33551	
1225	0	32760	32614	32775	32813	37229	34734	33569	
1226	0	32727	32761	32662	32766	37237	34730	33570	
1227	0	32764	32698	32704	32725	37224	34734	33567	
1228	0	32832	32699	32805	32675	37222	34739	33546	
1229	0	32775	32582	32678	32809	37243	34717	33555	
1230	0	32816	32671	32631	32760	37229	34728	33555	
1231	0	32752	32610	32793	32714	37243	34751	33538	
1232	0	32797	32539	32667	32835	37237	34728	33550	
1233	0	32730	32604	32562	32775	37250	34755	33534	
1234	0	32775	32698	32770	32775	37241	34728	33542	
1235	0	32745	32805	32658	32775	37212	34722	33543	
1236	0	32737	32635	32681	32749	37246	34726	33554	
1237	0	32775	32749	32720	32691	37230	34718	33543	
1238	0	32704	32701	32567	32751	37255	34722	33536	
1239	0	32766	32762	32715	32787	37208	34733	33531	
1240	0	32818	32765	32660	32693	37250	34729	33530	
1241	0	32732	32741	32535	32592	37225	34746	33548	
1242	0	32775	32647	32639	32764	37202	34755	33531	
1243	0	32737	32710	32681	32766	37236	34740	33536	
1244	0	32738	32560	32744	32869	37233	34751	33543	
1245	0	32736	32681	32663	32741	37217	34734	33551	
1246	0	32804	32546	32613	32787	37217	34727	33555	
1247	0	32794	32711	32762	32796	37242	34727	33543	
1248	0	32795	32679	32553	32731	37223	34731	33543	
1249	0	32775	32754	32532	32807	37253	34732	33538	
1250	0	32775	32793	32663	32742	37221	34740	33537	
1251	0	32760	32634	32775	32767	37191	34759	33543	
1252	0	32744	32742	32647	32828	37214	34720	33574	
1253	0	32775	32716	32733	32595	37222	34733	33543	
1254	0	32826	32760	32546	32670	37219	34727	33536	
1255	0	32826	32654	32495	32738	37247	34731	33543	
1256	0	32732	32771	32646	32807	37208	34729	33546	
1257	0	32460	32621	32775	32923	37211	34723	33539	
1258	0	32775	32706	32582	32582	37220	34730	33525	
1259	0	32844	32742	32633	32600	37196	34729	33520	
1260	0	32754	32519	32638	32738	37216	34751	33530	
1261	0	32784	32509	32724	32662	37233	34739	33544	
1262	0	32745	32765	32522	32818	37229	34739	33559	
1263	0	32738	32802	32682	32539	37199	34752	33525	
1264	0	32824	32742	32729	32775	37215	34766	33537	
1265	0	32754	32786	32721	32807	37235	34741	33555	
1266	0	32788	32675	32687	32726	37233	34720	33556	
1267	0	32817	32655	32720	32698	37215	34727	33556	
1268	0	32828	32655	32667	32694	37209	34742	33558	
1269	0	32744	32775	32525	32819	37211	34758	33571	
1270	0	32725	32587	32493	32752	37243	34740	33551	
1271	0	32754	32769	32670	32717	37261	34707	33555	
1272	0	32762	32762	32757	32786	37220	34695	33541	
1273	0	32775	32761	32531	32715	37229	34703	33530	
1274	0	32792	32719	32691	32786	37225	34693	33513	
1275	0	32752	32703	32671	32791	37224	34717	33515	
1276	0	32775	32743	32647	32743	37204	34717	33538	
1277	0	32728	32731	32576	32835	37237	34717	33539	
1278	0	32788	32717	32624	32690	37220	34719	33546	
1279	0	32731	32559	32596	32775	37255	34735	33544	
1280	0	32740	32727	32678	32751	37239	34743	33543	
1281	0	32741	32733	32742	32775	37224	34770	33526	
1282	0	32744	32769	32735	32765	37229	34759	33532	
1283	0	32772	32552	32717	32711	37247	34738	33543	
1284	0	32798	32773	32769	32799	37225	34752	33535	
1285	0	32780	32635	32696	32755	37247	34740	33520	
1286	0	32782	32685	32685	32806	37199	34722	33551	
1287	0	32754	32677	32784	32687	37219	34724	33556	
1288	0	32760	32722	32711	32710	37223	34719	33567	
1289	0	32721	32702	32530	32807	37235	34721	33549	
1290	0	32832	32706	32664	32769	37270	34718	33553	
1291	0	32770	32658	32614	32809	37220	34704	33538	
1292	0	32748	32631	32599	32672	37247	34706	33553	
1293	0	32738	32745	32758	32754	37241	34695	33554	
1294	0	32764	32703	32711	32745	37198	34706	33539	
1295	0	32738	32640	32663	32752	37223	34702	33531	
1296	0	32798	32726	32717	32758	37241	34726	33527	
1297	0	32736	32621	32578	32767	37254	34727	33539	
1298	0	32785	32762	32685	32760	37213	34725	33564	
1299	0	32713	32598	32583	32775	37213	34726	33559	
1300	0	32771	32766	32773	32689	37216	34722	33561	
1301	0	32804	32694	32711	32743	37222	34707	33549	
1302	0	32718	32621	32601	32707	37237	34742	33517	
1303	0	32745	32800	32759	32754	37210	34720	33533	
1304	0	32775	32702	32711	32767	37242	34723	33544	
1305	0	32763	32767	32758	32655	37214	34733	33530	
1306	0	32803	32692	32570	32608	37233	34728	33545	
1307	0	32768	32531	32503	32762	37209	34731	33545	
1308	0	32772	32669	32758	32806	37219	34739	33538	
1309	0	32712	32554	32539	32805	37225	34713	33552	
1310	0	32763	32716	32698	32711	37191	34719	33544	
1311	0	32827	32669	32575	32795	37229	34722	33543	
1312	0	32800	32516	32513	32642	37233	34730	33537	
1313	0	32750	32766	32775	32599	37233	34713	33551	
1314	0	32812	32624	32573	32762	37239	34713	33543	
1315	0	32752	32631	32510	32662	37220	34727	33542	
1316	0	32775	32658	32632	32790	37233	34710	33559	
1317	0	32755	32769	32524	32707	37249	34717	33538	
1318	0	32788	32775	32631	32738	37241	34718	33543	
1319	0	32774	32601	32727	32704	37237	34724	33538	
1320	0	32766	32711	32530	32784	37221	34706	33551	
1321	0	32740	32543	32742	32729	37211	34712	33547	
1322	0	32784	32758	32630	32643	37253	34717	33554	
1323	0	32772	32679	32627	32774	37224	34731	33536	
1324	0	32747	32694	32786	32789	37235	34710	33542	
1325	0	32737	32708	32674	32682	37235	34711	33535	
1326	0	32771	32806	32724	32764	37217	34706	33538	
1327	0	32816	32680	32629	32790	37235	34706	33539	
1328	0	32792	32551	32551	32768	37227	34726	33543	
1329	0	32734	32711	32628	32742	37197	34713	33544	
1330	0	32816	32599	32475	32871	37227	34707	33541	
1331	0	32706	32620	32718	32743	37263	34708	33539	
1332	0	32760	32573	32635	32687	37251	34733	33543	
1333	0	32757	32568	32677	32775	37255	34695	33567	
1334	0	32769	32663	32653	32662	37233	34715	33553	
1335	0	32785	32715	32710	32683	37219	34733	33543	
1336	0	32760	32603	32711	32816	37243	34726	33541	
1337	0	32725	32711	32621	32704	37252	34718	33532	
1338	0	32744	32677	32640	32705	37217	34715	33543	
1339	0	32774	32773	32723	32787	37197	34717	33542	
1340	0	32775	32674	32546	32606	37217	34724	33555	
1341	0	32775	32727	32698	32738	37214	34715	33552	
1342	0	32790	32677	32598	32612	37222	34720	33556	
1343	0	32860	32607	32549	32696	37246	34706	33554	
1344	0	32786	32698	32595	32746	37231	34695	33538	
1345	0	32583	32711	32730	32926	37241	34706	33543	
1346	0	32584	32507	32761	32867	37239	34715	33526	
1347	0	32954	32679	32527	32727	37202	34706	33526	
1348	0	32858	32647	32613	32739	37255	34706	33544	
1349	0	32775	32506	32734	32666	37226	34720	33532	
1350	0	32740	32716	32506	32707	37217	34710	33549	
1351	0	32712	32547	32677	32815	37247	34731	33543	
1352	0	32772	32682	32626	32710	37217	34720	33528	
1353	0	32754	32612	32775	32590	37241	34719	33554	
1354	0	32775	32743	32680	32737	37236	34704	33561	
1355	0	32825	32786	32696	32741	37217	34695	33543	
1356	0	32721	32646	32754	32789	37223	34710	33537	
1357	0	32734	32775	32607	32727	37228	34706	33567	
1358	0	32775	32762	32567	32634	37239	34736	33575	
1359	0	32824	32715	32630	32775	37228	34715	33563	
1360	0	32760	32584	32591	32682	37223	34703	33553	
1361	0	32775	32792	32775	32815	37223	34683	33540	
1362	0	32804	32565	32595	32808	37243	34673	33538	
1363	0	32744	32563	32598	32715	37262	34685	33520	
1364	0	32789	32737	32655	32775	37247	34717	33523	
1365	0	32748	32626	32707	32731	37211	34707	33531	
1366	0	32729	32530	32790	32816	37254	34695	33543	
1367	0	32760	32506	32704	32836	37244	34726	33523	
1368	0	32750	32751	32737	32743	37255	34710	33553	
1369	0	32745	32794	32550	32619	37224	34723	33546	
1370	0	32768	32726	32655	32775	37229	34726	33551	
1371	0	32756	32775	32706	32790	37233	34729	33543	
1372	0	32730	32702	32686	32812	37252	34743	33542	
1373	0	32771	32765	32582	32813	37241	34726	33542	
1374	0	32761	32696	32678	32698	37226	34713	33533	
1375	0	32758	32769	32549	32702	37229	34715	33549	
1376	0	32812	32542	32581	32798	37245	34706	33554	
1377	0	32765	32688	32670	32751	37220	34704	33555	
1378	0	32792	32818	32495	32746	37221	34703	33544	
1379	0	32780	32623	32688	32687	37220	34691	33556	
1380	0	32786	32727	32647	32754	37239	34690	33567	
1381	0	32820	32717	32591	32792	37220	34687	33559	
1382	0	32715	32795	32729	32672	37217	34689	33549	
1383	0	32736	32727	32670	32657	37230	34703	33561	
1384	0	32813	32694	32506	32770	37266	34688	33530	
1385	0	32736	32551	32705	32675	37240	34682	33528	
1386	0	32757	32720	32699	32734	37242	34715	33543	
1387	0	32764	32545	32746	32601	37250	34692	33527	
1388	0	32763	32685	32647	32718	37252	34687	33560	
1389	0	32722	32769	32517	32665	37252	34707	33568	
1390	0	32727	32612	32679	32671	37255	34703	33558	
1391	0	32732	32735	32698	32723	37255	34706	33551	
1392	0	32802	32592	32538	32771	37216	34716	33522	
1393	0	32725	32727	32593	32654	37211	34706	33536	
1394	0	32748	32647	32507	32788	37262	34729	33523	
1395	0	32720	32765	32658	32623	37235	34707	33546	
1396	0	32829	32738	32534	32810	37254	34695	33541	
1397	0	32757	32766	32647	32722	37230	34717	33538	
1398	0	32775	32672	32656	32804	37222	34690	33563	
1399	0	32736	32751	32647	32758	37224	34694	33539	
1400	0	32802	32775	32598	32775	37213	34710	33543	
1401	0	32732	32533	32635	32743	37233	34711	33548	
1402	0	32756	32788	32711	32800	37239	34715	33552	
1403	0	32729	32715	32521	32792	37250	34713	33547	
1404	0	32729	32695	32762	32714	37231	34708	33562	
1405	0	32764	32775	32738	32729	37241	34694	33559	
1406	0	32708	32584	32607	32799	37231	34706	33563	
1407	0	32902	32730	32662	32614	37239	34689	33558	
1408	0	32406	32752	32615	32739	37231	34693	33552	
1409	0	32794	32740	32678	32803	37255	34694	33546	
1410	0	32850	32656	32731	32815	37252	34710	33549	
1411	0	32798	32728	32729	32787	37242	34695	33543	
1412	0	32746	32667	32617	32835	37275	34694	33543	
1413	0	32745	32655	32562	32717	37236	34695	33542	
1414	0	32775	32532	32775	32647	37239	34695	33538	
1415	0	32790	32686	32754	32590	37271	34707	33539	
1416	0	32784	32731	32651	32800	37222	34703	33536	
1417	0	32725	32662	32757	32677	37239	34710	33527	
1418	0	32784	32749	32785	32775	37255	34708	33559	
1419	0	32724	32689	32583	32759	37261	34695	33553	
1420	0	32728	32697	32609	32742	37241	34684	33568	
1421	0	32740	32699	32753	32844	37216	34706	33557	
1422	0	32768	32803	32745	32807	37249	34694	33545	
1423	0	32754	32721	32733	32711	37227	34694	33561	
1424	0	32804	32714	32642	32700	37225	34722	33536	
1425	0	32720	32695	32467	32647	37251	34686	33554	
1426	0	32745	32738	32548	32615	37219	34695	33552	
1427	0	32734	32740	32634	32658	37227	34719	33547	
1428	0	32772	32620	32507	32682	37215	34701	33554	
1429	0	32702	32655	32611	32705	37228	34704	33551	
1430	0	32796	32738	32615	32770	37252	34695	33536	
1431	0	32775	32745	32472	32799	37235	34695	33558	
1432	0	32786	32683	32504	32823	37237	34695	33576	
1433	0	32742	32742	32702	32765	37208	34689	33583	
1434	0	32758	32673	32587	32734	37237	34695	33561	
1435	0	32817	32581	32516	32660	37236	34686	33561	
1436	0	32784	32685	32566	32791	37236	34695	33554	
1437	0	32583	32728	32775	32824	37244	34710	33531	
1438	0	32650	32719	32753	32854	37243	34705	33531	
1439	0	32858	32643	32514	32668	37228	34706	33536	
1440	0	32828	32674	32579	32657	37272	34703	33552	
1441	0	32788	32599	32563	32744	37245	34695	33562	
1442	0	32781	32809	32726	32788	37250	34704	33548	
1443	0	32741	32551	32663	32753	37224	34695	33533	
1444	0	32788	32716	32531	32679	37202	34719	33543	
1445	0	32771	32767	32647	32775	37247	34711	33561	
1446	0	32728	32738	32519	32775	37247	34688	33564	
1447	0	32742	32556	32634	32867	37244	34695	33550	
1448	0	32772	32711	32746	32734	37242	34693	33555	
1449	0	32717	32492	32617	32664	37223	34723	33563	
1450	0	32732	32514	32696	32745	37245	34723	33590	
1451	0	32708	32541	32499	32775	37261	34715	33584	
1452	0	32839	32727	32631	32756	37252	34695	33571	
1453	0	32768	32723	32766	32791	37262	34686	33543	
1454	0	32792	32787	32548	32847	37249	34676	33555	
1455	0	32764	32612	32583	32691	37239	34681	33539	
1456	0	32748	32711	32527	32796	37223	34687	33522	
1457	0	32787	32623	32696	32763	37231	34677	33532	
1458	0	32763	32681	32630	32763	37235	34682	33550	
1459	0	32792	32653	32594	32662	37217	34703	33549	
1460	0	32772	32754	32811	32736	37273	34715	33555	
1461	0	32750	32728	32647	32647	37227	34695	33568	
1462	0	32797	32755	32700	32749	37237	34711	33552	
1463	0	32762	32621	32515	32830	37233	34706	33543	
1464	0	32733	32715	32605	32807	37245	34700	33560	
1465	0	32826	32678	32699	32726	37227	34715	33567	
1466	0	32740	32636	32587	32804	37229	34699	33565	
1467	0	32727	32681	32530	32710	37237	34702	33563	
1468	0	32821	32723	32655	32767	37247	34685	33573	
1469	0	32756	32791	32512	32734	37247	34691	33559	
1470	0	32795	32775	32703	32686	37225	34677	33558	
1471	0	32731	32590	32745	32770	37253	34681	33577	
1472	0	32798	32635	32623	32698	37264	34706	33554	
1473	0	32706	32534	32583	32646	37252	34690	33549	
1474	0	32768	32711	32713	32775	37244	34703	33555	
1475	0	32734	32724	32670	32756	37211	34690	33551	
1476	0	32784	32607	32532	32679	37255	34673	33560	
1477	0	32735	32637	32651	32773	37263	34677	33539	
1478	0	32794	32742	32629	32718	37237	34690	33547	
1479	0	32787	32583	32536	32659	37242	34684	33559	
1480	0	32775	32563	32661	32816	37237	34691	33575	
1481	0	32736	32567	32604	32711	37211	34703	33571	
1482	0	32800	32631	32634	32811	37215	34689	33564	
1483	0	32756	32557	32758	32758	37231	34695	33549	
1484	0	32829	32654	32699	32631	37229	34685	33541	
1485	0	32718	32514	32702	32771	37219	34695	33551	
1486	0	32749	32588	32610	32666	37228	34695	33556	
1487	0	32742	32691	32522	32694	37225	34695	33543	
1488	0	32773	32624	32756	32696	37255	34700	33555	
1489	0	32764	32740	32662	32800	37263	34690	33556	
1490	0	32742	32690	32666	32826	37243	34706	33567	
1491	0	32742	32539	32647	32788	37253	34677	33567	
1492	0	32816	32775	32623	32775	37253	34686	33551	
1493	0	32764	32719	32658	32720	37247	34692	33567	
1494	0	32764	32541	32681	32627	37243	34694	33568	
1495	0	32752	32620	32542	32683	37239	34710	33558	
1496	0	32742	32583	32638	32723	37241	34695	33560	
1497	0	32721	32733	32749	32739	37230	34695	33557	
1498	0	32786	32775	32748	32811	37239	34684	33563	
1499	0	32746	32563	32723	32687	37266	34695	33536	
1500	0	32758	32677	32653	32871	37253	34693	33539	
1501	0	32769	32702	32601	32762	37264	34703	33553	
1502	0	32742	32665	32767	32775	37239	34695	33542	
1503	0	32745	32735	32716	32647	37237	34705	33555	
1504	0	32768	32775	32773	32735	37246	34690	33555	
1505	0	32760	32587	32711	32696	37214	34704	33529	
1506	0	32745	32665	32711	32583	37239	34698	33544	
1507	0	32775	32544	32461	32677	37240	34690	33577	
1508	0	32760	32794	32568	32759	37191	34687	33530	
1509	0	32688	32775	32773	32643	37229	34679	33559	
1510	0	32787	32679	32756	32788	37231	34694	33549	
1511	0	32730	32765	32613	32735	37237	34695	33560	
1512	0	32750	32679	32530	32748	37242	34704	33543	
1513	0	32784	32605	32734	32754	37218	34695	33561	
1514	0	32786	32682	32688	32761	37247	34694	33561	
1515	0	32744	32765	32695	32855	37223	34687	33563	
1516	0	32804	32710	32578	32800	37225	34715	33561	
1517	0	32742	32753	32727	32647	37235	34698	33563	
1518	0	32801	32660	32583	32754	37227	34695	33566	
1519	0	32778	32723	32624	32628	37237	34713	33547	
1520	0	32750	32591	32647	32792	37255	34704	33547	
1521	0	32794	32775	32775	32692	37227	34704	33543	
1522	0	32742	32580	32635	32760	37231	34706	33535	
1523	0	32736	32562	32670	32653	37255	34695	33571	
1524	0	32762	32563	32582	32623	37244	34691	33555	
1525	0	32764	32697	32519	32802	37242	34681	33584	
1526	0	32793	32608	32671	32640	37242	34690	33567	
1527	0	32829	32597	32635	32719	37230	34704	33550	
1528	0	32862	32723	32624	32690	37222	34699	33551	
1529	0	32656	32738	32727	32846	37237	34719	33540	
1530	0	32480	32816	32742	32945	37225	34694	33560	
1531	0	32784	32535	32567	32642	37221	34690	33531	
1532	0	32860	32789	32646	32608	37223	34711	33536	
1533	0	32819	32761	32542	32813	37272	34688	33549	
1534	0	32768	32563	32626	32801	37230	34699	33547	
1535	0	32703	32739	32681	32627	37280	34702	33545	
1536	0	32769	32719	32659	32747	37226	34722	33557	
1537	0	32741	32775	32479	32757	37208	34721	33555	
1538	0	32794	32583	32647	32791	37255	34715	33567	
1539	0	32732	32699	32647	32727	37240	34719	33563	
1540	0	32812	32711	32711	32799	37255	34706	33551	
1541	0	32782	32666	32640	32720	37251	34724	33561	
1542	0	32786	32495	32626	32793	37227	34730	33579	
1543	0	32720	32706	32637	32614	37213	34711	33601	
1544	0	32775	32711	32743	32708	37214	34701	33575	
1545	0	32775	32763	32701	32796	37223	34691	33554	
1546	0	32752	32698	32664	32694	37223	34679	33531	
1547	0	32720	32553	32504	32719	37247	34679	33526	
1548	0	32763	32583	32516	32638	37251	34676	33513	
1549	0	32738	32686	32694	32704	37231	34695	33533	
1550	0	32775	32614	32642	32745	37203	34710	33538	
1551	0	32716	32696	32658	32691	37237	34693	33567	
1552	0	32754	32711	32723	32770	37247	34715	33566	
1553	0	32712	32742	32670	32830	37228	34710	33543	
1554	0	32716	32738	32754	32775	37238	34752	33554	
1555	0	32720	32552	32534	32775	37202	34743	33543	
1556	0	32790	32743	32623	32775	37229	34733	33555	
1557	0	32712	32775	32647	32773	37270	34738	33543	
1558	0	32734	32695	32745	32775	37227	34725	33542	
1559	0	32760	32547	32634	32627	37243	34722	33565	
1560	0	32796	32710	32572	32737	37227	34717	33564	
1561	0	32784	32701	32541	32817	37231	34722	33552	
1562	0	32775	32713	32645	32756	37247	34717	33549	
1563	0	32802	32531	32643	32592	37237	34695	33560	
1564	0	32745	32544	32771	32627	37221	34695	33555	
1565	0	32775	32682	32647	32647	37237	34710	33543	
1566	0	32748	32621	32681	32763	37210	34695	33556	
1567	0	32813	32613	32753	32647	37247	34695	33542	
1568	0	32775	32720	32493	32727	37223	34685	33539	
1569	0	32756	32592	32670	32824	37244	34685	33548	
1570	0	32813	32819	32711	32683	37224	34715	33554	
1571	0	32748	32468	32763	32770	37215	34722	33549	
1572	0	32791	32548	32721	32747	37264	34711	33549	
1573	0	32758	32560	32651	32802	37227	34719	33548	
1574	0	32818	32749	32655	32738	37237	34722	33549	
1575	0	32775	32540	32763	32605	37228	34726	33535	
1576	0	32809	32722	32731	32750	37243	34720	33554	
1577	0	32766	32672	32605	32826	37221	34731	33543	
1578	0	32745	32735	32575	32775	37229	34729	33545	
1579	0	32839	32691	32575	32623	37216	34727	33543	
1580	0	32706	32743	32598	32667	37235	34742	33535	
1581	0	32758	32719	32563	32679	37220	34715	33549	
1582	0	32775	32571	32642	32769	37247	34715	33554	
1583	0	32724	32775	32587	32771	37228	34719	33544	
1584	0	32775	32760	32617	32745	37223	34729	33570	
1585	0	32760	32663	32635	32684	37255	34722	33570	
1586	0	32775	32727	32708	32626	37229	34722	33556	
1587	0	32800	32704	32554	32775	37191	34705	33555	
1588	0	32826	32730	32474	32702	37229	34715	33555	
1589	0	32747	32519	32759	32755	37215	34715	33558	
1590	0	32775	32759	32539	32702	37222	34724	33541	
1591	0	32755	32642	32652	32847	37198	34727	33554	
1592	0	32744	32687	32647	32623	37223	34710	33555	
1593	0	32736	32630	32519	32801	37220	34713	33555	
1594	0	32774	32786	32711	32839	37216	34720	33536	
1595	0	32775	32558	32756	32658	37218	34738	33536	
1596	0	32795	32698	32710	32821	37213	34704	33539	
1597	0	32742	32676	32746	32679	37235	34713	33536	
1598	0	32832	32637	32771	32743	37218	34710	33543	
1599	0	32752	32711	32656	32660	37250	34711	33543	
1600	0	32802	32734	32589	32775	37191	34711	33557	
1601	0	32762	32667	32689	32846	37239	34731	33544	
1602	0	32746	32775	32681	32816	37233	34736	33531	
1603	0	32728	32802	32606	32775	37225	34708	33556	
1604	0	32775	32742	32674	32745	37252	34717	33563	
1605	0	32722	32655	32760	32763	37253	34742	33549	
1606	0	32786	32655	32662	32791	37239	34722	33543	
1607	0	32743	32692	32625	32730	37211	34733	33558	
1608	0	32750	32727	32490	32710	37239	34715	33557	
1609	0	32754	32752	32523	32773	37248	34722	33553	
1610	0	32748	32791	32653	32751	37225	34735	33540	
1611	0	32753	32621	32698	32673	37217	34717	33549	
1612	0	32775	32727	32700	32754	37229	34723	33533	
1613	0	32748	32615	32647	32784	37233	34718	33544	
1614	0	32784	32673	32632	32719	37219	34735	33542	
1615	0	32788	32707	32708	32711	37214	34743	33568	
1616	0	32740	32800	32576	32775	37231	34717	33545	
1617	0	32806	32699	32674	32669	37220	34720	33546	
1618	0	32850	32754	32552	32600	37228	34732	33533	
1619	0	32758	32823	32600	32798	37208	34723	33525	
1620	0	32603	32817	32856	32919	37222	34738	33539	
1621	0	32588	32679	32655	32864	37221	34722	33543	
1622	0	32886	32804	32602	32727	37224	34731	33523	
1623	0	32859	32544	32601	32748	37231	34713	33557	
1624	0	32726	32751	32688	32743	37252	34713	33535	
1625	0	32853	32732	32575	32786	37227	34722	33536	
1626	0	32826	32714	32587	32775	37223	34738	33551	
1627	0	32746	32744	32610	32738	37200	34726	33558	
1628	0	32788	32599	32702	32821	37221	34746	33556	
1629	0	32728	32543	32711	32699	37231	34759	33571	
1630	0	32782	32560	32645	32722	37203	34727	33568	
1631	0	32787	32679	32499	32809	37235	34738	33543	
1632	0	32795	32676	32647	32803	37255	34733	33559	
1633	0	32769	32742	32641	32729	37252	34742	33573	
1634	0	32800	32706	32671	32758	37252	34742	33557	
1635	0	32732	32775	32687	32688	37227	34722	33557	
1636	0	32834	32549	32626	32830	37255	34688	33546	
1637	0	32799	32711	32599	32698	37229	34680	33531	
1638	0	32752	32483	32567	32716	37244	34699	33539	
1639	0	32770	32740	32675	32775	37206	34717	33519	
1640	0	32706	32674	32605	32736	37207	34706	33528	
1641	0	32784	32627	32740	32770	37214	34705	33545	
1642	0	32756	32759	32469	32748	37221	34707	33549	
1643	0	32726	32739	32724	32663	37222	34740	33537	
1644	0	32769	32711	32766	32775	37208	34752	33542	
1645	0	32774	32740	32655	32775	37207	34759	33541	
1646	0	32775	32767	32705	32675	37236	34759	33559	
1647	0	32734	32658	32676	32775	37222	34755	33543	
1648	0	32754	32676	32533	32815	37225	34755	33530	
1649	0	32692	32762	32647	32839	37226	34739	33548	
1650	0	32770	32570	32683	32666	37215	34738	33547	
1651	0	32764	32711	32603	32639	37207	34726	33563	
1652	0	32823	32696	32695	32734	37249	34734	33555	
1653	0	32698	32566	32692	32763	37261	34719	33555	
1654	0	32800	32681	32522	32767	37204	34723	33547	
1655	0	32736	32822	32711	32790	37242	34737	33542	
1656	0	32775	32631	32798	32742	37233	34727	33543	
1657	0	32738	32745	32539	32818	37229	34711	33530	
1658	0	32775	32715	32775	32748	37219	34718	33530	
1659	0	32768	32736	32643	32767	37206	34721	33547	
1660	0	32792	32748	32662	32696	37214	34726	33538	
1661	0	32762	32679	32709	32745	37215	34713	33539	
1662	0	32819	32613	32599	32802	37235	34731	33551	
1663	0	32720	32806	32668	32858	37229	34731	33553	
1664	0	32717	32514	32478	32771	37210	34760	33536	
1665	0	32772	32591	32611	32749	37206	34739	33516	
1666	0	32762	32739	32620	32826	37198	34722	33541	
1667	0	32715	32729	32511	32740	37250	34729	33552	
1668	0	32812	32640	32486	32771	37207	34743	33531	
1669	0	32712	32627	32715	32669	37208	34726	33538	
1670	0	32775	32658	32718	32667	37252	34735	33538	
1671	0	32758	32680	32604	32804	37187	34733	33536	
1672	0	32800	32716	32739	32770	37217	34728	33536	
1673	0	32745	32637	32675	32707	37219	34734	33547	
1674	0	32760	32775	32561	32744	37223	34732	33563	
1675	0	32758	32811	32721	32789	37233	34722	33562	
1676	0	32737	32655	32670	32833	37211	34729	33538	
1677	0	32728	32748	32741	32766	37223	34737	33543	
1678	0	32742	32680	32512	32733	37229	34730	33543	
1679	0	32745	32700	32526	32607	37227	34722	33543	
1680	0	32838	32738	32666	32771	37217	34726	33553	
1681	0	32698	32723	32489	32824	37231	34742	33546	
1682	0	32769	32579	32630	32603	37221	34728	33539	
1683	0	32762	32667	32672	32797	37233	34739	33531	
1684	0	32818	32627	32686	32738	37217	34733	33531	
1685	0	32775	32799	32647	32709	37244	34722	33530	
1686	0	32758	32799	32736	32736	37211	34718	33539	
1687	0	32736	32646	32599	32759	37225	34727	33543	
1688	0	32775	32647	32732	32607	37235	34734	33535	
1689	0	32748	32663	32661	32798	37263	34731	33530	
1690	0	32786	32647	32693	32788	37219	34730	33551	
1691	0	32748	32827	32645	32811	37229	34718	33543	
1692	0	32813	32540	32658	32795	37218	34726	33545	
1693	0	32769	32774	32700	32697	37207	34734	33552	
1694	0	32752	32598	32693	32709	37202	34737	33538	
1695	0	32792	32750	32733	32584	37231	34752	33538	
1696	0	32753	32680	32639	32789	37219	34723	33550	
1697	0	32748	32583	32742	32784	37231	34740	33543	
1698	0	32781	32738	32647	32751	37215	34747	33526	
1699	0	32824	32743	32592	32631	37227	34747	33557	
1700	0	32711	32734	32688	32666	37209	34736	33551	
1701	0	32733	32747	32535	32611	37235	34731	33543	
1702	0	32796	32535	32717	32726	37227	34747	33534	
1703	0	32760	32640	32576	32797	37224	34733	33545	
1704	0	32756	32647	32835	32655	37225	34726	33569	
1705	0	32775	32820	32751	32715	37255	34733	33560	
1706	0	32794	32593	32519	32647	37215	34707	33552	
1707	0	32838	32819	32598	32679	37217	34713	33561	
1708	0	32806	32703	32465	32711	37217	34713	33543	
1709	0	32641	32822	32784	32933	37233	34723	33539	
1710	0	32560	32775	32831	32941	37207	34715	33543	
1711	0	32802	32666	32617	32611	37223	34723	33529	
1712	0	32890	32803	32593	32663	37229	34734	33538	
1713	0	32764	32519	32706	32769	37228	34726	33555	
1714	0	32721	32694	32635	32785	37235	34731	33558	
1715	0	32724	32704	32662	32762	37208	34728	33543	
1716	0	32792	32659	32700	32699	37200	34738	33536	
1717	0	32749	32646	32627	32647	37219	34739	33561	
1718	0	32789	32630	32672	32793	37253	34727	33574	
1719	0	32784	32774	32792	32800	37238	34739	33543	
1720	0	32763	32538	32644	32711	37226	34727	33550	
1721	0	32743	32671	32539	32726	37241	34755	33570	
1722	0	32763	32775	32671	32666	37211	34744	33575	
1723	0	32751	32731	32608	32759	37220	34750	33575	
1724	0	32700	32767	32612	32839	37224	34720	33567	
1725	0	32706	32795	32624	32798	37231	34679	33566	
1726	0	32738	32698	32719	32720	37225	34680	33555	
1727	0	32746	32759	32643	32615	37223	34695	33543	
1728	0	32775	32613	32599	32582	37221	34713	33538	
1729	0	32679	32726	32674	32762	37251	34720	33546	
1730	0	32711	32763	32690	32578	37239	34706	33543	
1731	0	32744	32603	32607	32663	37237	34726	33538	
1732	0	32713	32740	32576	32767	37212	34747	33559	
1733	0	32740	32575	32635	32738	37247	34737	33560	
1734	0	32752	32691	32622	32754	37221	34744	33566	
1735	0	32771	32562	32612	32789	37242	34736	33549	
1736	0	32740	32592	32549	32799	37209	34742	33544	
1737	0	32729	32775	32547	32728	37220	34751	33557	
1738	0	32754	32659	32699	32743	37231	34729	33563	
1739	0	32741	32755	32678	32811	37219	34731	33561	
1740	0	32810	32547	32666	32687	37233	34710	33571	
1741	0	32768	32757	32526	32686	37225	34727	33546	
1742	0	32804	32511	32745	32647	37255	34707	33580	
1743	0	32732	32556	32502	32621	37215	34707	33553	
1744	0	32787	32759	32500	32766	37225	34695	33581	
1745	0	32768	32685	32530	32726	37237	34695	33577	
1746	0	32775	32735	32535	32731	37239	34695	33577	
1747	0	32790	32725	32612	32787	37239	34708	33565	
1748	0	32720	32622	32721	32791	37245	34687	33554	
1749	0	32728	32739	32659	32766	37243	34708	33552	
1750	0	32784	32748	32707	32759	37221	34714	33557	
1751	0	32754	32683	32711	32775	37224	34733	33560	
1752	0	32794	32560	32595	32748	37190	34720	33577	
1753	0	32730	32731	32583	32704	37255	34723	33567	
1754	0	32756	32699	32655	32843	37247	34713	33553	
1755	0	32799	32627	32738	32583	37223	34733	33531	
1756	0	32798	32809	32709	32804	37227	34726	33565	
1757	0	32722	32530	32701	32802	37210	34722	33543	
1758	0	32815	32662	32707	32766	37219	34736	33551	
1759	0	32720	32548	32748	32773	37233	34727	33558	
1760	0	32764	32717	32742	32727	37223	34727	33549	
1761	0	32773	32567	32742	32737	37219	34726	33551	
1762	0	32792	32727	32579	32725	37219	34708	33583	
1763	0	32806	32687	32643	32750	37222	34695	33570	
1764	0	32719	32646	32650	32647	37237	34717	33566	
1765	0	32769	32642	32707	32755	37208	34713	33565	
1766	0	32793	32699	32711	32622	37247	34708	33573	
1767	0	32808	32794	32711	32833	37215	34716	33574	
1768	0	32773	32831	32635	32831	37223	34713	33569	
1769	0	32742	32639	32563	32686	37240	34715	33572	
1770	0	32784	32743	32719	32723	37229	34717	33565	
1771	0	32730	32677	32621	32729	37244	34723	33549	
1772	0	32754	32708	32698	32729	37238	34705	33587	
1773	0	32711	32771	32618	32687	37239	34720	33560	
1774	0	32752	32790	32756	32812	37266	34710	33575	
1775	0	32740	32773	32605	32759	37239	34706	33552	
1776	0	32784	32617	32672	32694	37255	34695	33553	
1777	0	32762	32611	32667	32740	37210	34695	33563	
1778	0	32732	32696	32666	32711	37233	34695	33541	
1779	0	32735	32679	32670	32669	37245	34695	33555	
1780	0	32756	32537	32815	32690	37231	34694	33573	
1781	0	32806	32775	32698	32791	37226	34707	33555	
1782	0	32749	32683	32581	32608	37229	34710	33571	
1783	0	32765	32551	32583	32735	37219	34727	33553	
1784	0	32768	32672	32662	32775	37243	34732	33536	
1785	0	32748	32722	32455	32635	37209	34713	33537	
1786	0	32745	32723	32669	32701	37213	34688	33591	
1787	0	32775	32717	32605	32765	37198	34693	33571	
1788	0	32774	32564	32705	32809	37231	34717	33575	
1789	0	32796	32729	32615	32668	37247	34727	33565	
1790	0	32792	32810	32775	32802	37225	34726	33581	
1791	0	32768	32763	32519	32816	37210	34709	33599	
1792	0	32788	32749	32552	32762	37237	34702	33583	
1793	0	32775	32843	32583	32732	37227	34700	33571	
1794	0	32793	32734	32698	32656	37211	34711	33555	
1795	0	32764	32723	32626	32797	37233	34695	33579	
1796	0	32763	32720	32640	32841	37219	34703	33588	
1797	0	32767	32494	32739	32775	37233	34715	33594	
1798	0	32888	32631	32471	32599	37214	34703	33573	
1799	0	32800	32734	32536	32742	37233	34716	33571	
1800	0	32672	32707	32756	32895	37249	34704	33575	
1801	0	32436	32769	32850	32923	37221	34695	33565	
1802	0	32823	32715	32626	32579	37191	34713	33557	
1803	0	32904	32642	32502	32711	37255	34706	33555	
1804	0	32747	32738	32655	32663	37241	34707	33561	
1805	0	32817	32519	32609	32620	37249	34704	33554	
1806	0	32770	32573	32582	32775	37227	34706	33569	
1807	0	32775	32655	32670	32705	37214	34717	33555	
1808	0	32831	32731	32523	32683	37227	34706	33573	
1809	0	32778	32617	32675	32848	37233	34717	33561	
1810	0	32714	32723	32510	32839	37213	34707	33575	
1811	0	32756	32799	32704	32595	37255	34717	33559	
1812	0	32809	32667	32657	32743	37202	34717	33565	
1813	0	32768	32803	32756	32763	37248	34733	33605	
1814	0	32750	32626	32736	32819	37229	34736	33601	
1815	0	32756	32687	32647	32804	37240	34706	33607	
1816	0	32740	32553	32687	32708	37237	34674	33566	
1817	0	32760	32610	32775	32738	37214	34685	33539	
1818	0	32783	32751	32687	32627	37240	34677	33550	
1819	0	32729	32615	32637	32743	37229	34695	33557	
1820	0	32744	32797	32802	32695	37221	34677	33583	
1821	0	32715	32612	32794	32735	37204	34682	33567	
1822	0	32801	32713	32604	32728	37211	34706	33568	
1823	0	32765	32727	32541	32710	37247	34713	33572	
1824	0	32762	32743	32563	32817	37237	34719	33573	
1825	0	32720	32713	32720	32666	37233	34722	33568	
1826	0	32759	32758	32517	32751	37225	34723	33563	
1827	0	32692	32739	32561	32639	37223	34718	33555	
1828	0	32750	32690	32775	32791	37229	34719	33559	
1829	0	32773	32749	32504	32624	37237	34717	33557	
1830	0	32788	32589	32595	32802	37214	34695	33575	
1831	0	32784	32562	32721	32728	37249	34706	33577	
1832	0	32735	32580	32466	32821	37252	34709	33577	
1833	0	32766	32681	32759	32803	37235	34695	33572	
1834	0	32800	32543	32734	32811	37219	34707	33569	
1835	0	32775	32773	32448	32687	37270	34703	33555	
1836	0	32805	32704	32587	32589	37245	34711	33560	
1837	0	32732	32742	32532	32751	37214	34694	33590	
1838	0	32764	32652	32570	32774	37229	34695	33563	
1839	0	32740	32681	32709	32747	37253	34695	33567	
1840	0	32797	32628	32690	32769	37226	34686	33555	
1841	0	32800	32723	32514	32738	37219	34692	33559	
1842	0	32807	32695	32646	32809	37259	34704	33577	
1843	0	32726	32729	32687	32656	37227	34695	33573	
1844	0	32717	32647	32623	32761	37245	34720	33595	
1845	0	32796	32673	32681	32647	37231	34710	33594	
1846	0	32769	32732	32583	32662	37219	34711	33574	
1847	0	32742	32694	32726	32791	37255	34707	33565	
1848	0	32775	32556	32692	32813	37229	34685	33551	
1849	0	32739	32674	32487	32797	37227	34692	33577	
1850	0	32766	32755	32762	32797	37224	34695	33577	
1851	0	32775	32562	32652	32623	37191	34710	33579	
1852	0	32804	32711	32666	32659	37224	34701	33571	
1853	0	32730	32725	32564	32635	37202	34717	33563	
1854	0	32837	32562	32522	32775	37250	34695	33576	
1855	0	32754	32835	32749	32691	37239	34706	33574	
1856	0	32751	32511	32633	32785	37237	34709	33573	
1857	0	32713	32742	32590	32786	37245	34711	33581	
1858	0	32751	32736	32699	32775	37243	34695	33587	
1859	0	32760	32743	32643	32771	37228	34702	33579	
1860	0	32761	32579	32701	32717	37215	34711	33577	
1861	0	32770	32691	32752	32810	37235	34695	33586	
1862	0	32787	32705	32598	32775	37206	34707	33573	
1863	0	32793	32742	32635	32815	37218	34706	33579	
1864	0	32800	32687	32647	32797	37233	34701	33585	
1865	0	32767	32574	32711	32676	37236	34695	33581	
1866	0	32765	32525	32678	32823	37243	34695	33577	
1867	0	32763	32690	32680	32763	37255	34685	33583	
1868	0	32812	32685	32631	32646	37235	34707	33590	
1869	0	32806	32500	32663	32700	37226	34695	33567	
1870	0	32752	32634	32512	32769	37210	34693	33574	
1871	0	32734	32743	32601	32740	37239	34706	33574	
1872	0	32758	32568	32505	32738	37231	34685	33574	
1873	0	32796	32643	32775	32607	37239	34694	33577	
1874	0	32763	32706	32604	32674	37255	34690	33574	
1875	0	32744	32669	32747	32678	37240	34713	33581	
1876	0	32738	32575	32587	32698	37222	34723	33589	
1877	0	32720	32669	32564	32727	37225	34702	33599	
1878	0	32832	32715	32694	32702	37209	34710	33571	
1879	0	32784	32766	32532	32647	37255	34695	33581	
1880	0	32805	32705	32591	32751	37229	34695	33587	
1881	0	32744	32668	32535	32731	37243	34695	33583	
1882	0	32800	32575	32711	32807	37237	34706	33583	
1883	0	32734	32639	32583	32707	37229	34706	33583	
1884	0	32756	32734	32639	32767	37233	34695	33577	
1885	0	32711	32676	32571	32742	37229	34687	33579	
1886	0	32775	32708	32621	32761	37241	34701	33573	
1887	0	32768	32790	32658	32733	37215	34695	33581	
1888	0	32796	32757	32545	32758	37220	34695	33593	
1889	0	32767	32645	32762	32687	37226	34695	33590	
1890	0	32829	32561	32565	32698	37213	34704	33583	
1891	0	32899	32612	32680	32729	37214	34691	33589	
1892	0	32788	32807	32775	32668	37226	34713	33575	
1893	0	32560	32747	32655	32902	37255	34704	33577	
1894	0	32640	32474	32679	32711	37237	34693	33560	
1895	0	32871	32576	32578	32698	37219	34700	33561	
1896	0	32874	32613	32626	32608	37244	34692	33583	
1897	0	32749	32679	32708	32619	37255	34687	33592	
1898	0	32756	32830	32494	32814	37255	34701	33592	
1899	0	32758	32773	32638	32759	37208	34716	33583	
1900	0	32728	32605	32637	32774	37229	34708	33583	
1901	0	32751	32654	32647	32671	37211	34719	33589	
1902	0	32766	32747	32595	32741	37230	34681	33600	
1903	0	32818	32607	32695	32782	37217	34687	33581	
1904	0	32774	32691	32722	32723	37218	34691	33571	
1905	0	32766	32773	32635	32813	37245	34718	33599	
1906	0	32773	32512	32561	32758	37221	34731	33610	
1907	0	32732	32758	32633	32714	37236	34695	33627	
1908	0	32736	32744	32686	32750	37214	34690	33584	
1909	0	32816	32553	32696	32650	37213	34672	33575	
1910	0	32815	32690	32578	32737	37230	34648	33585	
1911	0	32792	32679	32748	32775	37223	34665	33559	
1912	0	32784	32722	32710	32845	37251	34669	33583	
1913	0	32792	32743	32639	32833	37223	34686	33579	
1914	0	32743	32701	32656	32767	37207	34704	33568	
1915	0	32723	32726	32719	32706	37239	34691	33577	
1916	0	32736	32564	32658	32881	37223	34704	33600	
1917	0	32751	32687	32466	32677	37223	34713	33607	
1918	0	32747	32757	32623	32720	37225	34713	33571	
1919	0	32760	32811	32707	32638	37225	34723	33585	
1920	0	32773	32624	32550	32694	37210	34711	33589	
1921	0	32727	32727	32751	32711	37231	34715	33583	
1922	0	32769	32742	32579	32761	37244	34715	33605	
1923	0	32731	32727	32557	32542	37235	34722	33594	
1924	0	32765	32775	32687	32635	37206	34707	33599	
1925	0	32736	32488	32505	32671	37231	34685	33595	
1926	0	32814	32717	32723	32748	37218	34688	33601	
1927	0	32775	32687	32653	32666	37243	34691	33607	
1928	0	32762	32600	32735	32600	37233	34676	33590	
1929	0	32794	32731	32701	32666	37247	34685	33593	
1930	0	32775	32740	32555	32770	37231	34679	33581	
1931	0	32769	32604	32667	32734	37229	34677	33587	
1932	0	32758	32706	32588	32754	37245	34669	33570	
1933	0	32796	32755	32499	32775	37217	34707	33551	
1934	0	32805	32715	32623	32729	37255	34711	33577	
1935	0	32741	32547	32647	32601	37215	34694	33581	
1936	0	32764	32638	32667	32796	37241	34687	33603	
1937	0	32713	32583	32720	32787	37236	34708	33597	
1938	0	32775	32711	32763	32766	37245	34692	33589	
1939	0	32769	32672	32672	32653	37236	34704	33575	
1940	0	32816	32731	32621	32670	37247	34679	33580	
1941	0	32754	32747	32509	32794	37222	34706	33579	
1942	0	32775	32615	32532	32694	37254	34694	33576	
1943	0	32793	32770	32683	32790	37237	34683	33605	
1944	0	32798	32740	32608	32711	37219	34717	33574	
1945	0	32770	32687	32639	32735	37233	34706	33586	
1946	0	32817	32655	32673	32755	37239	34706	33589	
1947	0	32748	32505	32679	32810	37225	34719	33591	
1948	0	32724	32775	32621	32683	37223	34713	33581	
1949	0	32742	32589	32542	32759	37227	34695	33597	
1950	0	32745	32569	32603	32679	37231	34700	33577	
1951	0	32748	32739	32550	32647	37235	34695	33581	
1952	0	32761	32644	32435	32775	37220	34687	33595	
1953	0	32744	32758	32723	32742	37217	34695	33569	
1954	0	32764	32675	32630	32662	37219	34692	33583	
1955	0	32787	32600	32611	32844	37214	34695	33581	
1956	0	32761	32711	32511	32758	37209	34704	33579	
1957	0	32797	32725	32566	32754	37236	34704	33595	
1958	0	32800	32622	32633	32749	37239	34693	33587	
1959	0	32800	32543	32642	32699	37249	34693	33583	
1960	0	32796	32575	32654	32794	37222	34695	33581	
1961	0	32742	32704	32631	32767	37233	34695	33576	
1962	0	32723	32735	32516	32766	37239	34687	33579	
1963	0	32790	32688	32487	32757	37254	34695	33569	
1964	0	32824	32699	32626	32666	37215	34683	33567	
1965	0	32775	32628	32459	32829	37222	34683	33581	
1966	0	32754	32769	32524	32635	37240	34698	33571	
1967	0	32793	32544	32631	32791	37244	34709	33571	
1968	0	32791	32699	32716	32653	37228	34704	33583	
1969	0	32740	32687	32736	32685	37237	34694	33577	
1970	0	32753	32768	32659	32762	37221	34690	33593	
1971	0	32742	32759	32755	32793	37223	34692	33572	
1972	0	32830	32698	32686	32745	37223	34690	33581	
1973	0	32792	32635	32605	32804	37202	34690	33565	
1974	0	32774	32620	32631	32768	37216	34686	33586	
1975	0	32765	32791	32745	32767	37224	34690	33581	
1976	0	32815	32647	32717	32775	37229	34695	33583	
1977	0	32738	32765	32633	32685	37228	34699	33587	
1978	0	32818	32765	32641	32728	37235	34695	33584	
1979	0	32740	32711	32699	32755	37239	34685	33583	
1980	0	32756	32758	32736	32759	37239	34695	33560	
1981	0	32786	32702	32487	32751	37202	34703	33591	
1982	0	32769	32535	32762	32797	37255	34711	33585	
1983	0	32762	32626	32547	32804	37255	34706	33585	
1984	0	32854	32658	32577	32691	37231	34711	33571	
1985	0	32742	32739	32647	32667	37230	34690	33575	
1986	0	32850	32687	32614	32626	37219	34694	33563	
1987	0	32709	32811	32750	32884	37215	34705	33563	
1988	0	32452	32603	32695	32995	37221	34694	33575	
1989	0	32864	32571	32616	32743	37252	34690	33563	
1990	0	32862	32674	32664	32633	37219	34688	33558	
1991	0	32757	32690	32613	32733	37247	34685	33559	
1992	0	32760	32775	32560	32717	37224	34695	33566	
1993	0	32758	32719	32665	32727	37215	34695	33592	
1994	0	32774	32698	32743	32790	37218	34731	33573	
1995	0	32750	32698	32551	32756	37223	34710	33575	
1996	0	32790	32675	32715	32819	37248	34711	33583	
1997	0	32838	32583	32682	32795	37235	34720	33574	
1998	0	32758	32704	32725	32655	37262	34713	33563	
1999	0	32818	32718	32625	32819	37239	34720	33581	
2000	0	32800	32718	32794	32761	37239	34738	33592	
2001	0	32780	32583	32678	32739	37226	34723	33611	
2002	0	32705	32748	32614	32682	37196	34706	33577	
2003	0	32744	32663	32557	32796	37210	34675	33571	
2004	0	32760	32697	32731	32608	37223	34668	33572	
2005	0	32769	32705	32570	32775	37231	34660	33571	
2006	0	32758	32527	32741	32694	37223	34681	33559	
2007	0	32763	32627	32762	32727	37195	34685	33565	
2008	0	32786	32774	32750	32771	37203	34695	33566	
2009	0	32725	32789	32716	32623	37224	34689	33566	
2010	0	32768	32742	32604	32798	37259	34707	33561	
2011	0	32739	32611	32663	32775	37237	34720	33583	
2012	0	32756	32662	32647	32682	37233	34722	33589	
2013	0	32768	32764	32722	32631	37238	34723	33572	
2014	0	32755	32547	32594	32801	37236	34725	33582	
2015	0	32773	32808	32770	32796	37233	34732	33579	
2016	0	32762	32742	32643	32766	37239	34713	33581	
2017	0	32664	32769	32743	32751	37228	34727	33561	
2018	0	32824	32762	32739	32658	37222	34707	33587	
2019	0	32770	32578	32546	32751	37200	34703	33575	
2020	0	32786	32599	32692	32615	37219	34703	33587	
2021	0	32768	32581	32662	32775	37233	34715	33575	
2022	0	32812	32512	32631	32725	37246	34685	33579	
2023	0	32800	32743	32674	32679	37237	34679	33587	
2024	0	32756	32722	32582	32684	37252	34688	33577	
2025	0	32751	32729	32743	32775	37229	34694	33579	
2026	0	32773	32742	32681	32791	37247	34698	33563	
2027	0	32783	32676	32611	32666	37266	34695	33587	
2028	0	32758	32654	32586	32772	37233	34721	33572	
2029	0	32764	32621	32514	32749	37254	34727	33563	
2030	0	32742	32724	32694	32705	37222	34722	33574	
2031	0	32788	32757	32731	32601	37223	34706	33584	
2032	0	32782	32532	32710	32787	37223	34713	33573	
2033	0	32784	32498	32691	32615	37239	34718	33574	
2034	0	32788	32710	32667	32627	37242	34723	33577	
2035	0	32744	32724	32678	32791	37215	34736	33563	
2036	0	32816	32670	32628	32699	37237	34718	33564	
2037	0	32703	32647	32766	32657	37248	34721	33570	
2038	0	32794	32671	32578	32723	37233	34738	33567	
2039	0	32754	32769	32632	32775	37254	34711	33585	
2040	0	32740	32663	32663	32789	37231	34713	33586	
2041	0	32712	32595	32614	32594	37229	34715	33584	
2042	0	32762	32689	32738	32660	37227	34717	33591	
2043	0	32774	32682	32544	32659	37202	34735	33581	
2044	0	32800	32617	32722	32670	37254	34727	33574	
2045	0	32775	32521	32703	32785	37229	34737	33549	
2046	0	32813	32664	32588	32722	37216	34724	33563	
2047	0	32805	32603	32697	32787	37231	34717	33575	
2048	0	32717	32676	32569	32688	37217	34717	33585	
2049	0	32784	32633	32592	32736	37231	34722	33568	
2050	0	32796	32551	32731	32658	37221	34728	33589	
2051	0	32756	32812	32715	32797	37233	34714	33566	
2052	0	32758	32704	32703	32861	37243	34725	33568	
2053	0	32733	32775	32843	32763	37234	34715	33577	
2054	0	32768	32763	32679	32753	37239	34711	33546	
2055	0	32768	32688	32636	32768	37263	34711	33566	
2056	0	32775	32711	32583	32706	37224	34717	33549	
2057	0	32809	32658	32526	32662	37255	34727	33561	
2058	0	32743	32729	32665	32756	37223	34709	33569	
2059	0	32724	32790	32723	32799	37239	34723	33548	
2060	0	32765	32736	32624	32667	37229	34726	33563	
2061	0	32758	32775	32723	32827	37223	34726	33573	
2062	0	32708	32696	32697	32773	37239	34727	33565	
2063	0	32719	32706	32679	32789	37214	34727	33571	
2064	0	32773	32670	32558	32804	37223	34727	33569	
2065	0	32752	32678	32624	32683	37202	34733	33579	
2066	0	32792	32679	32466	32817	37203	34730	33575	
2067	0	32782	32632	32624	32797	37217	34719	33589	
2068	0	32772	32623	32700	32768	37247	34740	33573	
2069	0	32712	32694	32626	32775	37219	34729	33558	
2070	0	32762	32715	32562	32815	37235	34724	33559	
2071	0	32758	32577	32512	32642	37221	34706	33581	
2072	0	32775	32754	32571	32800	37230	34715	33601	
2073	0	32711	32755	32741	32775	37255	34723	33592	
2074	0	32770	32686	32464	32707	37230	34727	33551	
2075	0	32870	32707	32753	32775	37233	34722	33567	
2076	0	32844	32673	32553	32598	37206	34724	33553	
2077	0	32683	32847	32700	32790	37190	34706	33567	
2078	0	32464	32867	32784	33031	37239	34721	33559	
2079	0	32764	32690	32533	32802	37225	34710	33569	
2080	0	32858	32735	32472	32691	37206	34706	33563	
2081	0	32762	32634	32736	32690	37225	34715	33577	
2082	0	32845	32742	32551	32609	37243	34728	33556	
2083	0	32812	32635	32752	32639	37221	34740	33565	
2084	0	32742	32734	32551	32805	37191	34715	33560	
2085	0	32856	32838	32606	32811	37206	34754	33562	
2086	0	32775	32685	32611	32786	37199	34751	33578	
2087	0	32832	32728	32691	32713	37231	34736	33590	
2088	0	32745	32749	32703	32800	37219	34729	33572	
2089	0	32728	32555	32662	32647	37219	34739	33566	
2090	0	32775	32664	32680	32832	37211	34743	33607	
2091	0	32738	32564	32566	32750	37221	34744	33579	
2092	0	32762	32775	32592	32756	37215	34719	33571	
2093	0	32744	32775	32569	32803	37212	34691	33577	
2094	0	32738	32629	32519	32732	37199	34704	33573	
2095	0	32745	32600	32530	32720	37190	34687	33548	
2096	0	32818	32698	32644	32736	37245	34695	33550	
2097	0	32764	32705	32775	32831	37190	34706	33571	
2098	0	32824	32567	32699	32773	37242	34713	33569	
2099	0	32760	32730	32566	32826	37229	34720	33571	
2100	0	32796	32790	32671	32756	37213	34731	33563	
2101	0	32738	32749	32718	32770	37215	34738	33587	
2102	0	32773	32721	32551	32720	37222	34759	33581	
2103	0	32662	32623	32607	32823	37189	34763	33555	
2104	0	32774	32671	32746	32632	37217	34743	33555	
2105	0	32711	32653	32512	32690	37195	34752	33561	
2106	0	32790	32749	32761	32698	37223	34746	33570	
2107	0	32731	32747	32707	32762	37191	34729	33572	
2108	0	32792	32759	32548	32845	37203	34736	33562	
2109	0	32763	32683	32662	32677	37239	34728	33561	
2110	0	32782	32754	32540	32775	37228	34711	33569	
2111	0	32722	32583	32642	32775	37237	34728	33571	
2112	0	32738	32683	32669	32738	37232	34720	33565	
2113	0	32786	32667	32515	32834	37237	34717	33571	
2114	0	32742	32760	32551	32775	37200	34711	33557	
2115	0	32804	32615	32528	32635	37211	34726	33550	
2116	0	32722	32683	32553	32723	37215	34713	33564	
2117	0	32752	32538	32561	32646	37238	34731	33575	
2118	0	32816	32654	32599	32800	37235	34711	33575	
2119	0	32714	32615	32723	32775	37211	34715	33577	
2120	0	32775	32699	32489	32598	37233	34740	33556	
2121	0	32774	32676	32766	32647	37191	34722	33561	
2122	0	32749	32613	32773	32761	37191	34728	33543	
2123	0	32772	32711	32571	32768	37217	34745	33552	
2124	0	32730	32583	32711	32762	37240	34730	33553	
2125	0	32738	32750	32605	32695	37229	34726	33569	
2126	0	32786	32679	32680	32767	37231	34744	33567	
2127	0	32746	32619	32643	32811	37223	34752	33546	
2128	0	32688	32652	32571	32713	37190	34747	33551	
2129	0	32784	32742	32487	32617	37224	34745	33543	
2130	0	32760	32671	32607	32710	37224	34739	33553	
2131	0	32792	32635	32683	32797	37211	34729	33561	
2132	0	32737	32529	32711	32797	37200	34722	33572	
2133	0	32748	32657	32738	32764	37197	34739	33552	
2134	0	32796	32720	32728	32863	37211	34715	33567	
2135	0	32797	32692	32647	32747	37206	34731	33566	
2136	0	32742	32499	32653	32743	37237	34724	33569	
2137	0	32739	32790	32683	32762	37233	34734	33563	
2138	0	32769	32647	32711	32687	37237	34706	33565	
2139	0	32758	32532	32643	32819	37196	34723	33563	
2140	0	32810	32738	32576	32743	37206	34719	33581	
2141	0	32717	32765	32698	32758	37207	34728	33568	
2142	0	32756	32803	32721	32769	37243	34715	33575	
2143	0	32748	32662	32735	32696	37237	34723	33567	
2144	0	32764	32749	32672	32794	37249	34733	33564	
2145	0	32814	32543	32515	32663	37239	34733	33538	
2146	0	32794	32735	32775	32743	37196	34725	33560	
2147	0	32760	32577	32587	32711	37254	34726	33551	
2148	0	32843	32742	32735	32694	37216	34720	33554	
2149	0	32711	32682	32540	32688	37206	34705	33586	
2150	0	32768	32583	32691	32835	37218	34728	33559	
2151	0	32817	32733	32507	32605	37233	34743	33558	
2152	0	32760	32615	32743	32703	37191	34725	33569	
2153	0	32704	32543	32619	32720	37246	34723	33571	
2154	0	32762	32611	32627	32753	37221	34726	33573	
2155	0	32732	32647	32775	32742	37212	34731	33568	
2156	0	32762	32630	32666	32775	37215	34731	33559	
2157	0	32732	32574	32701	32734	37211	34717	33571	
2158	0	32756	32662	32685	32882	37214	34726	33559	
2159	0	32740	32611	32747	32784	37239	34700	33563	
2160	0	32772	32740	32514	32804	37215	34717	33581	
2161	0	32816	32615	32696	32698	37238	34731	33559	
2162	0	32859	32738	32532	32728	37212	34711	33569	
2163	0	32802	32678	32569	32595	37243	34719	33555	
2164	0	32748	32627	32721	32914	37209	34732	33563	
2165	0	32426	32723	32925	33010	37216	34723	33543	
2166	0	32808	32676	32655	32786	37217	34704	33562	
2167	0	32841	32667	32512	32679	37215	34722	33549	
2168	0	32775	32526	32528	32694	37217	34727	33550	
2169	0	32775	32567	32675	32645	37197	34736	33520	
2170	0	32744	32718	32517	32775	37211	34733	33548	
2171	0	32718	32553	32718	32690	37208	34759	33552	
2172	0	32758	32786	32691	32694	37223	34758	33565	
2173	0	32758	32528	32683	32613	37255	34747	33567	
2174	0	32794	32812	32674	32803	37205	34725	33583	
2175	0	32760	32662	32626	32842	37231	34739	33577	
2176	0	32729	32722	32795	32790	37235	34740	33571	
2177	0	32723	32623	32554	32667	37211	34759	33571	
2178	0	32832	32689	32694	32724	37214	34752	33577	
2179	0	32768	32734	32719	32682	37245	34711	33577	
2180	0	32804	32571	32647	32703	37245	34701	33560	
2181	0	32786	32653	32625	32775	37211	34668	33538	
2182	0	32785	32727	32729	32755	37231	34695	33550	
2183	0	32778	32732	32719	32712	37236	34704	33547	
2184	0	32804	32734	32554	32702	37235	34701	33544	
2185	0	32793	32796	32770	32707	37208	34724	33548	
2186	0	32782	32527	32692	32728	37254	34706	33546	
2187	0	32788	32707	32532	32775	37221	34736	33548	
2188	0	32758	32750	32627	32629	37236	34734	33572	
2189	0	32720	32705	32555	32770	37259	34763	33573	
2190	0	32768	32694	32654	32789	37223	34742	33573	
2191	0	32760	32691	32812	32773	37202	34746	33577	
2192	0	32743	32765	32694	32850	37235	34739	33561	
2193	0	32740	32711	32614	32677	37229	34723	33560	
2194	0	32732	32683	32742	32658	37183	34736	33543	
2195	0	32808	32606	32636	32623	37207	34706	33568	
2196	0	32796	32685	32647	32623	37223	34695	33560	
2197	0	32730	32709	32666	32813	37243	34715	33566	
2198	0	32722	32551	32574	32711	37227	34711	33565	
2199	0	32772	32642	32686	32637	37232	34713	33538	
2200	0	32748	32575	32731	32771	37255	34726	33567	
2201	0	32702	32710	32534	32766	37200	34719	33553	
2202	0	32756	32468	32624	32830	37239	34710	33538	
2203	0	32692	32754	32732	32755	37239	34678	33560	
2204	0	32773	32614	32513	32677	37233	34692	33539	
2205	0	32792	32761	32634	32675	37229	34719	33539	
2206	0	32775	32791	32551	32788	37223	34711	33549	
2207	0	32767	32753	32662	32734	37233	34710	33569	
2208	0	32696	32590	32748	32642	37223	34713	33573	
2209	0	32738	32607	32598	32772	37237	34723	33564	
2210	0	32744	32655	32710	32775	37229	34720	33544	
2211	0	32808	32685	32658	32773	37235	34713	33557	
2212	0	32803	32745	32666	32728	37246	34707	33566	
2213	0	32717	32775	32635	32770	37235	34731	33547	
2214	0	32816	32697	32709	32743	37239	34728	33542	
2215	0	32706	32705	32710	32739	37231	34739	33554	
2216	0	32786	32742	32630	32753	37254	34723	33563	
2217	0	32772	32764	32534	32753	37231	34724	33551	
2218	0	32773	32575	32727	32788	37229	34710	33550	
2219	0	32774	32709	32630	32806	37245	34712	33563	
2220	0	32768	32598	32583	32775	37263	34692	33572	
2221	0	32756	32730	32613	32854	37244	34713	33563	
2222	0	32775	32672	32605	32728	37225	34719	33562	
2223	0	32739	32775	32704	32786	37225	34704	33548	
2224	0	32782	32725	32563	32734	37252	34695	33554	
2225	0	32720	32775	32696	32614	37261	34692	33577	
2226	0	32780	32711	32518	32734	37216	34706	33553	
2227	0	32775	32658	32659	32711	37264	34695	33553	
2228	0	32775	32759	32677	32680	37245	34713	33546	
2229	0	32683	32630	32595	32690	37233	34697	33543	
2230	0	32832	32643	32599	32806	37237	34706	33543	
2231	0	32725	32742	32708	32647	37253	34695	33556	
2232	0	32772	32795	32639	32759	37226	34700	33560	
2233	0	32769	32775	32683	32771	37239	34717	33530	
2234	0	32789	32671	32768	32775	37253	34695	33542	
2235	0	32769	32612	32631	32796	37229	34717	33524	
2236	0	32736	32749	32690	32753	37215	34704	33542	
2237	0	32739	32747	32521	32801	37239	34711	33539	
2238	0	32736	32685	32621	32797	37226	34695	33558	
2239	0	32756	32590	32808	32775	37225	34715	33545	
2240	0	32782	32627	32730	32864	37231	34704	33554	
2241	0	32768	32581	32699	32743	37236	34688	33561	
2242	0	32814	32735	32607	32750	37245	34695	33543	
2243	0	32809	32742	32546	32806	37237	34711	33546	
2244	0	32767	32832	32633	32731	37231	34695	33543	
2245	0	32792	32599	32581	32719	37243	34724	33543	
2246	0	32728	32715	32535	32684	37255	34706	33561	
2247	0	32832	32541	32640	32706	37233	34668	33555	
2248	0	32802	32739	32797	32762	37264	34691	33548	
2249	0	32750	32750	32707	32771	37203	34685	33539	
2250	0	32748	32666	32671	32620	37237	34704	33555	
2251	0	32736	32839	32773	32729	37223	34687	33563	
2252	0	32816	32647	32493	32771	37223	34695	33569	
2253	0	32842	32786	32679	32795	37241	34695	33564	
2254	0	32882	32627	32583	32734	37229	34710	33535	
2255	0	32773	32557	32571	32796	37255	34690	33538	
2256	0	32493	32743	32839	32903	37244	34695	33543	
2257	0	32733	32530	32553	32666	37231	34677	33551	
2258	0	32864	32757	32613	32647	37223	34690	33531	
2259	0	32774	32660	32463	32723	37222	34695	33559	
2260	0	32804	32759	32581	32641	37255	34689	33543	
2261	0	32771	32528	32625	32657	37252	34706	33531	
2262	0	32736	32763	32626	32722	37221	34706	33529	
2263	0	32754	32640	32775	32570	37230	34703	33536	
2264	0	32757	32766	32796	32794	37229	34687	33543	
2265	0	32800	32747	32670	32667	37280	34701	33547	
2266	0	32792	32775	32579	32749	37253	34695	33543	
2267	0	32784	32761	32688	32679	37243	34695	33557	
2268	0	32804	32747	32543	32759	37237	34713	33570	
2269	0	32720	32579	32543	32642	37255	34721	33569	
2270	0	32816	32570	32711	32791	37252	34706	33585	
2271	0	32726	32567	32703	32802	37244	34671	33574	
2272	0	32768	32486	32495	32775	37229	34665	33543	
2273	0	32762	32615	32734	32747	37243	34667	33538	
2274	0	32763	32582	32599	32611	37255	34685	33536	
2275	0	32808	32751	32546	32683	37249	34682	33551	
2276	0	32829	32571	32738	32721	37267	34693	33543	
2277	0	32751	32730	32745	32733	37254	34693	33553	
2278	0	32749	32704	32679	32641	37255	34691	33557	
2279	0	32720	32667	32662	32662	37247	34690	33560	
2280	0	32736	32626	32666	32803	37249	34705	33554	
2281	0	32684	32769	32461	32731	37223	34694	33535	
2282	0	32843	32741	32621	32773	37226	34694	33543	
2283	0	32721	32739	32689	32806	37225	34695	33541	
2284	0	32768	32752	32644	32816	37267	34707	33542	
2285	0	32696	32727	32655	32669	37228	34700	33556	
2286	0	32808	32758	32663	32679	37235	34690	33555	
2287	0	32775	32727	32742	32711	37241	34691	33548	
2288	0	32770	32544	32583	32859	37255	34685	33568	
2289	0	32744	32674	32583	32582	37225	34681	33553	
2290	0	32748	32784	32647	32752	37266	34673	33565	
2291	0	32752	32707	32582	32643	37235	34667	33560	
2292	0	32786	32822	32745	32745	37223	34679	33559	
2293	0	32762	32754	32665	32763	37233	34663	33560	
2294	0	32731	32681	32617	32625	37244	34672	33551	
2295	0	32692	32751	32605	32702	37233	34681	33537	
2296	0	32792	32606	32675	32822	37218	34660	33542	
2297	0	32720	32765	32627	32747	37229	34679	33552	
2298	0	32837	32631	32564	32714	37282	34677	33554	
2299	0	32763	32808	32514	32831	37236	34690	33564	
2300	0	32774	32769	32703	32700	37247	34695	33577	
2301	0	32763	32594	32633	32670	37248	34685	33575	
2302	0	32743	32748	32534	32681	37225	34694	33535	
2303	0	32742	32705	32647	32743	37255	34695	33538	
2304	0	32752	32583	32467	32838	37217	34679	33542	
2305	0	32738	32727	32575	32823	37255	34677	33539	
2306	0	32823	32601	32647	32729	37251	34695	33559	
2307	0	32800	32552	32660	32808	37237	34695	33543	
2308	0	32749	32743	32729	32642	37255	34690	33571	
2309	0	32800	32514	32573	32775	37239	34693	33571	
2310	0	32720	32620	32554	32818	37211	34695	33565	
2311	0	32810	32711	32578	32844	37227	34675	33581	
2312	0	32786	32663	32596	32791	37247	34679	33573	
2313	0	32717	32804	32557	32647	37220	34695	33569	
2314	0	32747	32771	32645	32647	37255	34683	33576	
2315	0	32706	32723	32655	32817	37241	34679	33575	
2316	0	32801	32739	32638	32790	37253	34695	33568	
2317	0	32738	32647	32710	32679	37255	34676	33577	
2318	0	32802	32764	32518	32706	37237	34691	33546	
2319	0	32769	32717	32631	32731	37296	34675	33571	
2320	0	32748	32706	32667	32786	37242	34695	33569	
2321	0	32780	32723	32687	32811	37275	34683	33569	
2322	0	32808	32752	32610	32683	37219	34679	33572	
2323	0	32750	32591	32571	32743	37227	34664	33562	
2324	0	32813	32679	32731	32857	37240	34691	33571	
2325	0	32775	32627	32615	32711	37277	34678	33555	
2326	0	32740	32749	32748	32719	37247	34677	33554	
2327	0	32708	32811	32719	32775	37248	34688	33549	
2328	0	32759	32715	32607	32631	37246	34686	33566	
2329	0	32754	32626	32647	32775	37243	34673	33573	
2330	0	32757	32805	32752	32711	37255	34683	33559	
2331	0	32762	32538	32645	32859	37265	34713	33548	
2332	0	32752	32696	32720	32686	37259	34679	33545	
2333	0	32768	32680	32563	32711	37254	34695	33559	
2334	0	32704	32690	32754	32729	37215	34677	33561	
2335	0	32799	32736	32719	32660	37254	34695	33553	
2336	0	32710	32558	32730	32731	37255	34687	33574	
2337	0	32724	32699	32711	32698	37237	34706	33553	
2338	0	32808	32558	32556	32765	37265	34670	33577	
2339	0	32754	32590	32711	32706	37225	34695	33560	
2340	0	32739	32670	32623	32735	37242	34687	33575	
2341	0	32748	32717	32630	32732	37254	34685	33568	
2342	0	32792	32775	32653	32806	37237	34695	33563	
2343	0	32749	32688	32615	32723	37223	34695	33550	
2344	0	32786	32746	32550	32711	37226	34675	33560	
2345	0	32722	32711	32538	32818	37226	34690	33563	
2346	0	32736	32702	32728	32815	37227	34671	33560	
2347	0	32774	32711	32494	32788	37254	34671	33571	
2348	0	32840	32555	32694	32681	37221	34699	33575	
2349	0	32830	32791	32471	32758	37250	34672	33567	
2350	0	32808	32806	32607	32847	37216	34695	33549	
2351	0	32616	32715	32717	32808	37229	34684	33540	
2352	0	32584	32609	32727	32854	37223	34677	33549	
2353	0	32908	32633	32544	32714	37225	34677	33561	
2354	0	32756	32582	32647	32638	37278	34674	33555	
2355	0	32757	32773	32727	32775	37217	34692	33563	
2356	0	32765	32754	32539	32651	37247	34690	33551	
2357	0	32731	32743	32500	32813	37221	34706	33543	
2358	0	32708	32699	32658	32679	37221	34706	33542	
2359	0	32747	32775	32473	32654	37241	34695	33571	
2360	0	32802	32751	32750	32791	37233	34695	33577	
2361	0	32757	32652	32771	32759	37255	34677	33571	
2362	0	32750	32691	32562	32655	37247	34679	33571	
2363	0	32754	32627	32647	32775	37218	34701	33577	
2364	0	32727	32706	32624	32806	37255	34715	33593	
2365	0	32807	32698	32582	32749	37255	34695	33592	
2366	0	32767	32694	32726	32647	37241	34681	33570	
2367	0	32756	32710	32709	32775	37245	34649	33559	
2368	0	32762	32773	32556	32681	37221	34658	33543	
2369	0	32754	32663	32638	32647	37249	34650	33543	
2370	0	32758	32759	32537	32725	37229	34667	33536	
2371	0	32772	32790	32646	32673	37234	34656	33563	
2372	0	32769	32677	32765	32601	37266	34684	33557	
2373	0	32775	32527	32798	32742	37245	34703	33546	
2374	0	32808	32755	32570	32617	37245	34675	33579	
2375	0	32723	32747	32638	32672	37251	34680	33551	
2376	0	32749	32699	32647	32700	37233	34690	33549	
2377	0	32736	32775	32668	32703	37225	34695	33571	
2378	0	32756	32655	32695	32804	37243	34708	33563	
2379	0	32721	32763	32675	32775	37243	34695	33587	
2380	0	32750	32697	32684	32826	37255	34684	33559	
2381	0	32768	32607	32683	32764	37231	34694	33560	
2382	0	32816	32590	32660	32775	37254	34672	33583	
2383	0	32760	32544	32692	32743	37239	34695	33567	
2384	0	32832	32809	32676	32715	37235	34679	33570	
2385	0	32758	32494	32640	32692	37255	34671	33577	
2386	0	32725	32784	32547	32575	37250	34684	33577	
2387	0	32723	32610	32525	32775	37224	34667	33560	
2388	0	32740	32562	32615	32683	37252	34668	33561	
2389	0	32764	32728	32553	32583	37250	34671	33569	
2390	0	32742	32747	32703	32678	37264	34662	33549	
2391	0	32775	32635	32633	32739	37255	34653	33551	
2392	0	32802	32719	32710	32803	37264	34681	33538	
2393	0	32728	32530	32710	32796	37229	34682	33565	
2394	0	32748	32711	32662	32683	37239	34695	33579	
2395	0	32752	32645	32638	32775	37242	34695	33579	
2396	0	32796	32548	32683	32675	37244	34686	33558	
2397	0	32711	32798	32685	32796	37244	34690	33552	
2398	0	32801	32757	32629	32715	37242	34669	33557	
2399	0	32724	32715	32455	32855	37237	34679	33554	
2400	0	32786	32792	32643	32611	37200	34703	33549	
2401	0	32745	32727	32685	32755	37227	34681	33557	
2402	0	32723	32736	32596	32854	37213	34689	33567	
2403	0	32740	32647	32617	32813	37249	34690	33571	
2404	0	32708	32748	32599	32717	37255	34673	33575	
2405	0	32752	32710	32572	32666	37215	34684	33558	
2406	0	32734	32671	32647	32709	37237	34692	33581	
2407	0	32763	32677	32658	32647	37247	34679	33576	
2408	0	32769	32647	32688	32766	37231	34681	33552	
