# OpenSignals Text File Format
# {"00:07:80:3B:46:38": {"sensor": ["EMG", "EMG", "EMG", "EMG", "XYZ", "XYZ", "XYZ"], "device name": "00:07:80:3B:46:38", "column": ["nSeq", "DI", "FL", "BL", "FR", "BR", "Z", "Y", "X"], "sync interval": 2, "time": "14:10:2.824", "comments": "", "device connection": "BTH00:07:80:3B:46:38", "channels": [1, 2, 3, 4, 6, 7, 8], "date": "2016-6-24", "mode": 0, "digital IO": [0, 1], "firmware version": 772, "device": "biosignalsplux", "position": 0, "sampling rate": 100, "label": ["FL", "BL", "FR", "BR", "Z", "Y", "X"], "resolution": [16, 16, 16, 16, 16, 16, 16], "special": [{}, {}, {}, {}, {}, {}, {}]}}
# EndOfHeader
0	0	32647	32887	32634	32789	36259	29239	32775	
1	0	32646	32609	32989	32312	36254	29266	32817	
2	0	32662	32962	32547	32751	36214	29287	32813	
3	0	33009	32405	32327	32565	36167	29277	32799	
4	0	32769	31943	32571	32647	36267	29229	32813	
5	0	33368	32320	32615	32655	36257	29258	32811	
6	0	33090	32647	32732	32873	36159	29342	32738	
7	0	32704	32183	32422	33083	36351	29339	32773	
8	0	32840	31239	32570	31769	36078	29366	32720	
9	0	32212	32624	32548	32703	36198	29331	32709	
10	0	32312	32606	32283	32357	36274	29312	32711	
11	0	33056	32622	32553	32751	36243	29295	32699	
12	0	32740	32717	32474	33056	36255	29286	32726	
13	0	33248	32655	32864	32209	36260	29286	32706	
14	0	32793	32276	32686	32390	36263	29260	32717	
15	0	32699	34166	32638	32590	36265	29282	32738	
16	0	32635	32791	32903	32799	36267	29282	32775	
17	0	32596	31568	32801	31337	36253	29309	32798	
18	0	32231	32817	32750	33000	36231	29275	32749	
19	0	32878	34006	32653	32903	36163	29258	32711	
20	0	32775	32474	32775	32309	36171	29245	32699	
21	0	32343	33279	32944	33017	36133	29215	32694	
22	0	32934	31885	32492	32771	36124	29163	32706	
23	0	32576	33771	32831	32510	36067	29139	32699	
24	0	32662	32403	32730	32595	36098	29113	32711	
25	0	32706	33445	32521	34144	36270	29056	32746	
26	0	32658	32375	32593	32109	36160	29191	32757	
27	0	33152	32727	32484	33339	36202	29238	32865	
28	0	32709	32571	32699	32742	36103	29233	32815	
29	0	32168	32199	32756	33263	36231	29191	32828	
30	0	32944	32225	32585	32545	36109	29204	32775	
31	0	32775	32630	32688	31903	36274	29231	32802	
32	0	32825	32293	32556	32660	36197	29282	32847	
33	0	33139	32531	32825	32789	36311	29287	32874	
34	0	32676	33115	32678	32720	36222	29303	32850	
35	0	32766	31582	32455	33718	36265	29314	32815	
36	0	32929	33250	32427	32208	36212	29292	32818	
37	0	32912	32608	32764	33184	36202	29295	32806	
38	0	32848	32663	32926	32386	36193	29268	32814	
39	0	32530	32815	32300	32615	36045	29253	32809	
40	0	32960	32641	32750	32787	36246	29214	32787	
41	0	32900	32602	32871	32809	36063	29191	32790	
42	0	32813	32544	32351	32596	36200	29191	32810	
43	0	32744	32479	32663	32478	36178	29191	32815	
44	0	32742	33155	32429	33323	36139	29199	32829	
45	0	33012	32815	32547	32714	36231	29182	32854	
46	0	32646	32346	32560	33799	36095	29202	32852	
47	0	33424	32715	32805	32695	36276	29191	32867	
48	0	32716	32610	32405	32915	36106	29245	32848	
49	0	32850	32675	32400	32896	36265	29211	32892	
50	0	33670	32806	32443	32743	36191	29232	32891	
51	0	32746	32757	32672	33462	36105	29222	32840	
52	0	33176	32687	32699	32871	36318	29207	32851	
53	0	32906	32873	32672	35648	36064	29234	32813	
54	0	33022	32685	32627	32647	36219	29224	32813	
55	0	32819	31947	32430	33790	36189	29231	32823	
56	0	33068	32299	32691	32558	36118	29247	32784	
57	0	32391	32588	33303	32751	36307	29231	32826	
58	0	33062	32714	32623	33366	36167	29255	32797	
59	0	32634	32446	32720	32352	36103	29232	32787	
60	0	33012	33081	32603	32775	36368	29226	32815	
61	0	32669	32753	32376	32155	36359	29250	32819	
62	0	32453	32535	32583	32493	36247	29270	32808	
63	0	32938	33445	32775	33110	36226	29282	32775	
64	0	32934	32390	32977	32763	36203	29286	32787	
65	0	32922	32634	32470	32607	36183	29263	32775	
66	0	33316	32754	32430	32637	36175	29239	32775	
67	0	33019	32727	32562	32357	36180	29227	32775	
68	0	32956	32768	32486	33526	36111	29241	32775	
69	0	32658	32607	32355	32287	36307	29237	32802	
70	0	33027	32675	32855	32813	36039	29267	32775	
71	0	32205	32355	32358	32278	36295	29211	32829	
72	0	32617	32263	32894	33193	36089	29244	32775	
73	0	32456	32259	32736	31815	36231	29200	32791	
74	0	32846	32194	32621	33012	36278	29223	32800	
75	0	32626	32553	32620	32551	36116	29246	32755	
76	0	32782	32765	32754	32891	36145	29248	32775	
77	0	32720	34331	32814	33041	36226	29275	32773	
78	0	33060	32598	32681	32997	36203	29304	32797	
79	0	32275	32167	32658	32548	36231	29314	32784	
80	0	33080	32719	32717	32898	36230	29247	32787	
81	0	32712	32417	32544	31800	36218	29261	32803	
82	0	32605	32415	32601	32672	36246	29294	32796	
83	0	32902	34209	32620	32485	36241	29271	32775	
84	0	32994	32402	32553	33859	36204	29279	32775	
85	0	32984	33199	32653	32818	36182	29259	32805	
86	0	33014	32627	32565	32322	36167	29253	32775	
87	0	32616	33055	32675	32951	36212	29250	32802	
88	0	32842	32664	32589	32751	36203	29255	32775	
89	0	32554	32519	32583	32492	36218	29283	32775	
90	0	32610	32366	32625	32451	36208	29288	32765	
91	0	32851	31431	32462	32514	36112	29299	32775	
92	0	32992	33603	32540	32122	36324	29258	32797	
93	0	32677	32973	32621	34594	36208	29237	32810	
94	0	32711	33623	32367	32705	36107	29265	32799	
95	0	32684	32366	32742	32124	36321	29236	32834	
96	0	32316	32576	32794	32643	36135	29255	32793	
97	0	33339	32807	32673	32402	36282	29228	32812	
98	0	32748	32600	32567	32642	36120	29249	32775	
99	0	32456	32626	32553	32758	36199	29255	32816	
100	0	32485	32590	32747	32751	36199	29244	32795	
101	0	32986	32661	32626	32967	36179	29243	32788	
102	0	32774	33415	32446	32863	36190	29217	32805	
103	0	33392	32199	32461	32016	36148	29216	32812	
104	0	32698	31862	32675	32647	36171	29243	32805	
105	0	32676	32496	32743	33390	36193	29212	32815	
106	0	33001	32679	32398	32711	36179	29211	32809	
107	0	33095	32738	32647	33159	36143	29182	32813	
108	0	32711	32517	32658	32459	36128	29190	32797	
109	0	32708	32518	32558	32699	36153	29199	32804	
110	0	32928	33234	32700	32524	36191	29215	32775	
111	0	32688	31815	32747	32576	36183	29200	32819	
112	0	32801	32455	32583	32775	36167	29229	32802	
113	0	32922	32795	32541	33504	36146	29237	32807	
114	0	32850	32914	32647	32578	36182	29212	32806	
115	0	33185	32699	32513	32752	36113	29206	32802	
116	0	32434	33089	32462	33043	36189	29209	32823	
117	0	32769	32893	32518	32509	36118	29218	32809	
118	0	32614	33771	32682	33197	36222	29213	32794	
119	0	32201	33081	33012	33023	36137	29204	32791	
120	0	32768	32461	32561	33069	36210	29208	32775	
121	0	32839	32493	32775	33204	36151	29204	32801	
122	0	32864	32251	32610	32646	36154	29213	32803	
123	0	32647	32600	32605	32617	36199	29220	32800	
124	0	32976	33556	32634	32784	36183	29211	32792	
125	0	32650	32593	32744	33271	36183	29227	32767	
126	0	32583	35348	32609	33878	36149	29230	32757	
127	0	32893	32423	32546	32617	36192	29221	32784	
128	0	32578	32376	32675	33867	36190	29232	32775	
129	0	32903	32573	32668	32126	36197	29227	32775	
130	0	32838	33314	32623	32899	36188	29229	32775	
131	0	32680	33125	32898	31096	36163	29242	32775	
132	0	33028	32557	32639	33537	36210	29232	32793	
133	0	32660	31556	32669	32084	36212	29243	32792	
134	0	32748	32951	32695	32767	36236	29235	32786	
135	0	33010	33386	32728	32714	36218	29233	32797	
136	0	32850	32715	32612	32604	36203	29243	32775	
137	0	32804	32478	32635	32165	36183	29248	32783	
138	0	32980	32209	32666	32086	36182	29253	32762	
139	0	32524	31834	32589	33665	36215	29242	32775	
140	0	32522	32995	32903	32762	36205	29242	32790	
141	0	32699	34065	32588	32289	36166	29242	32801	
142	0	32676	32899	32613	32843	36206	29248	32795	
143	0	32744	32554	32542	32851	36214	29256	32801	
144	0	32739	32773	32912	32683	36186	29255	32788	
145	0	32750	32583	32903	32899	36213	29266	32791	
146	0	32756	33818	32498	33215	36188	29241	32811	
147	0	32888	32874	32694	32017	36222	29267	32796	
148	0	32336	32335	32440	32170	36201	29266	32775	
149	0	32672	32642	32626	34143	36222	29266	32799	
150	0	32686	33253	32730	32430	36205	29270	32800	
151	0	32773	32450	32731	32819	36219	29244	32806	
152	0	32547	32717	32592	32630	36214	29245	32806	
153	0	32576	32859	32545	31948	36186	29255	32775	
154	0	32829	32540	32551	32421	36208	29271	32784	
155	0	33201	33013	32630	32647	36220	29240	32808	
156	0	32950	32622	32837	32127	36227	29246	32809	
157	0	32621	32903	32724	32923	36227	29251	32793	
158	0	33068	32482	32479	32664	36211	29246	32810	
159	0	32786	32159	32690	32717	36198	29254	32787	
160	0	32812	34750	32555	33346	36199	29248	32787	
161	0	32826	32505	32591	32174	36183	29253	32783	
162	0	32785	32607	32454	32587	36167	29239	32784	
163	0	32818	33557	32602	32830	36194	29252	32775	
164	0	32576	32455	32493	32775	36226	29240	32783	
165	0	32460	32873	32550	32858	36205	29235	32760	
166	0	32838	32629	32607	32583	36190	29231	32771	
167	0	32631	32624	32703	32756	36208	29221	32763	
168	0	32593	31651	32615	32632	36182	29233	32758	
169	0	32736	32402	32864	31603	36190	29246	32767	
170	0	32855	33043	32928	32797	36226	29250	32756	
171	0	32570	32251	32621	32734	36231	29223	32772	
172	0	32690	32829	32798	32898	36215	29237	32771	
173	0	32744	34648	32574	32484	36194	29239	32780	
174	0	32808	32724	32695	32216	36182	29225	32775	
175	0	32688	32605	32985	32710	36203	29229	32771	
176	0	32752	33646	32335	32620	36167	29234	32775	
177	0	32583	32902	32571	32716	36197	29227	32771	
178	0	32760	32501	32691	32708	36160	29219	32775	
179	0	32873	32562	32706	33203	36165	29237	32775	
180	0	32596	33086	32694	32282	36169	29218	32790	
181	0	32864	32251	32530	32826	36161	29230	32775	
182	0	33237	33017	32695	32398	36176	29218	32775	
183	0	32680	32023	32558	32677	36198	29206	32789	
184	0	32314	33778	32675	32748	36174	29227	32802	
185	0	33000	32239	32501	32646	36172	29232	32769	
186	0	32569	33331	32367	32995	36155	29221	32795	
187	0	32600	32293	32499	32859	36161	29213	32802	
188	0	32932	33287	32596	33113	36174	29218	32799	
189	0	32486	33341	32923	34058	36193	29233	32808	
190	0	33215	32681	32657	33012	36212	29232	32826	
191	0	32696	33464	32829	32967	36215	29228	32829	
192	0	32632	31814	32751	32878	36183	29247	32834	
193	0	32380	33075	32583	33603	36224	29241	32847	
194	0	32994	32613	32583	32676	36231	29259	32858	
195	0	32712	32552	33091	32824	36214	29266	32846	
196	0	33030	32769	32628	32734	36207	29251	32842	
197	0	32903	32775	32496	32775	36223	29285	32835	
198	0	32903	32514	32591	32661	36212	29270	32878	
199	0	32795	32751	32647	33388	36193	29270	32877	
200	0	32744	33616	32400	32679	36214	29276	32858	
201	0	32994	32920	32609	32914	36227	29277	32862	
202	0	32856	32434	32559	32613	36215	29279	32839	
203	0	32658	32635	32581	32455	36188	29263	32845	
204	0	32988	35003	32602	33179	36188	29242	32839	
205	0	32512	31745	32716	34581	36230	29246	32813	
206	0	32684	32535	32512	32469	36199	29241	32803	
207	0	32866	32598	32709	32663	36185	29247	32786	
208	0	32425	32577	32723	32727	36194	29264	32767	
209	0	32528	32231	32688	32927	36208	29271	32773	
210	0	32365	31943	32670	32822	36187	29243	32784	
211	0	32876	32815	32467	32683	36180	29264	32793	
212	0	32525	32742	32678	32815	36210	29267	32799	
213	0	32832	32360	32563	33050	36215	29254	32821	
214	0	33100	34407	32617	33058	36208	29253	32814	
215	0	32357	31777	32842	32287	36220	29255	32793	
216	0	33049	32468	32810	32727	36186	29270	32767	
217	0	32645	32474	32199	32251	36193	29255	32775	
218	0	32496	32382	32634	33072	36179	29237	32790	
219	0	32734	32423	32578	32558	36231	29248	32797	
220	0	32871	32399	32688	32903	36201	29253	32807	
221	0	33041	33513	32814	32802	36187	29241	32809	
222	0	32620	33530	32592	32859	36220	29243	32806	
223	0	32716	35613	32651	33051	36206	29237	32775	
224	0	32568	32188	32589	32744	36230	29248	32827	
225	0	32893	32272	32862	32387	36196	29255	32839	
226	0	33016	32757	32653	32839	36179	29250	32826	
227	0	32601	32771	32699	32602	36197	29224	32843	
228	0	32848	32623	32519	32671	36242	29229	32830	
229	0	32790	32223	32546	32711	36218	29251	32835	
230	0	33274	32005	32775	32736	36203	29250	32823	
231	0	33053	33103	32610	32764	36184	29256	32829	
232	0	32751	32370	32493	32436	36205	29249	32807	
233	0	32641	32939	32433	32927	36197	29248	32820	
234	0	32648	32685	32661	32982	36211	29225	32806	
235	0	32816	31976	32621	32862	36180	29233	32810	
236	0	32819	32386	32727	32574	36211	29251	32815	
237	0	32800	32297	32583	32887	36188	29258	32816	
238	0	32805	32978	32395	32679	36213	29251	32823	
239	0	32360	32416	32528	32411	36182	29248	32843	
240	0	32672	32525	32548	32442	36167	29231	32857	
241	0	32662	32041	32541	31905	36201	29247	32836	
242	0	32604	33014	32769	32983	36194	29239	32827	
243	0	32728	31785	32566	32738	36215	29223	32819	
244	0	32552	32320	32572	32983	36197	29217	32857	
245	0	32921	32321	32607	32526	36207	29255	32856	
246	0	32775	32610	32505	32699	36215	29231	32860	
247	0	32966	33635	32619	33250	36189	29261	32854	
248	0	32959	32722	32285	34771	36186	29253	32856	
249	0	32868	32707	32722	32891	36182	29251	32862	
250	0	32492	32802	32459	32647	36199	29247	32826	
251	0	32589	32530	32676	32518	36219	29240	32822	
252	0	32543	32555	32417	32523	36174	29255	32819	
253	0	32799	32722	32570	32333	36214	29226	32818	
254	0	32796	32276	32607	33007	36203	29235	32822	
255	0	32819	31616	32691	31767	36191	29241	32787	
256	0	32814	31638	32593	32582	36205	29249	32788	
257	0	32712	32626	32706	33544	36189	29231	32775	
258	0	32892	32775	32615	33259	36218	29229	32775	
259	0	32916	33369	32701	32818	36221	29227	32787	
260	0	32556	33086	32563	32643	36197	29234	32810	
261	0	32772	32830	32741	32391	36170	29207	32816	
262	0	33092	32486	32911	32946	36160	29222	32807	
263	0	32808	32359	32310	33068	36167	29235	32797	
264	0	32690	33727	32623	32678	36166	29231	32790	
265	0	32573	33415	32733	32867	36172	29222	32800	
266	0	32692	32304	32711	32827	36173	29223	32795	
267	0	32520	32589	32730	32624	36179	29218	32799	
268	0	32950	32711	32535	32975	36145	29220	32775	
269	0	32746	32871	32608	32481	36129	29208	32775	
270	0	32784	32391	32775	32876	36151	29212	32797	
271	0	32745	32423	32691	33177	36159	29200	32800	
272	0	32720	32703	32668	32706	36167	29207	32775	
273	0	32637	32574	32584	32583	36150	29191	32793	
274	0	32592	32064	32595	32900	36140	29191	32775	
275	0	32782	31097	32479	31804	36167	29168	32775	
276	0	32870	31885	32598	33530	36153	29184	32771	
277	0	32719	32632	32807	32749	36145	29168	32775	
278	0	32589	32449	32647	33083	36133	29170	32760	
279	0	32744	32784	32575	32427	36137	29167	32772	
280	0	32732	32800	32879	32458	36121	29191	32775	
281	0	32673	32511	32496	31982	36140	29179	32768	
282	0	33239	32746	32735	32866	36135	29176	32763	
283	0	32698	33249	32494	32158	36140	29151	32775	
284	0	32666	32898	32399	32785	36123	29179	32775	
285	0	32699	34647	32682	32795	36107	29180	32775	
286	0	32932	32151	32772	32722	36167	29167	32767	
287	0	32712	32111	32583	32717	36118	29182	32787	
288	0	32874	32199	32578	32903	36156	29177	32775	
289	0	32750	32148	32775	32774	36123	29184	32775	
290	0	32536	32764	32790	32734	36153	29189	32791	
291	0	32993	33180	32567	32775	36154	29181	32801	
292	0	32620	31878	32538	32493	36131	29191	32796	
293	0	32921	32986	32366	32470	36146	29182	32812	
294	0	32617	31831	32966	32759	36122	29159	32828	
295	0	32595	33347	32728	35150	36128	29189	32792	
296	0	32428	31821	32621	32647	36118	29191	32791	
297	0	33064	32383	32469	32231	36146	29171	32800	
298	0	32856	32782	32313	32127	36129	29186	32796	
299	0	33014	32543	32454	32047	36158	29172	32804	
300	0	32650	32263	32295	32854	36145	29175	32793	
301	0	32864	33251	32318	32994	36158	29175	32775	
302	0	32417	32959	32551	32146	36125	29179	32766	
303	0	32647	33991	32391	32681	36158	29177	32796	
304	0	32721	32716	32738	32592	36135	29187	32811	
305	0	32518	33132	32561	33773	36157	29191	32801	
306	0	32864	32599	32797	32748	36146	29189	32804	
307	0	32556	33476	32757	32496	36178	29183	32801	
308	0	32773	32260	32497	32603	36133	29191	32797	
309	0	32740	33241	32702	35335	36135	29178	32792	
310	0	32800	32251	32775	32574	36172	29191	32795	
311	0	32740	32527	32450	33287	36159	29177	32795	
312	0	32712	32668	32647	33959	36146	29191	32775	
313	0	32778	32431	32748	32298	36182	29190	32796	
314	0	32522	32262	32486	32806	36167	29213	32775	
315	0	32798	32474	32571	32764	36149	29219	32775	
316	0	32804	32601	32398	32431	36163	29217	32775	
317	0	32375	32519	32525	32890	36158	29191	32775	
318	0	32680	31775	32629	32550	36158	29208	32760	
319	0	32716	32685	32603	32263	36146	29207	32765	
320	0	32866	32725	32427	32755	36155	29184	32771	
321	0	32848	32468	32827	31708	36140	29185	32753	
322	0	32835	32770	32601	32941	36146	29191	32759	
323	0	32980	32775	32487	32708	36157	29189	32773	
324	0	32416	33019	32421	32011	36161	29167	32765	
325	0	33004	32505	32761	33036	36166	29177	32767	
326	0	32649	32569	32434	32553	36161	29187	32775	
327	0	32819	32504	32696	32977	36145	29184	32772	
328	0	32736	32546	32678	32877	36145	29165	32758	
329	0	32713	32662	32636	32374	36150	29190	32742	
330	0	32587	32378	32600	32727	36144	29178	32775	
331	0	32672	33065	33057	32775	36139	29158	32775	
332	0	32876	32613	32470	33327	36148	29170	32771	
333	0	32650	34153	32620	32447	36128	29169	32775	
334	0	32824	32603	32674	32726	36115	29154	32791	
335	0	32713	32509	32319	32655	36095	29152	32775	
336	0	32882	32978	32706	33866	36148	29161	32770	
337	0	32775	32775	32752	32415	36118	29153	32763	
338	0	33031	32688	32811	32521	36135	29172	32756	
339	0	32669	32742	32679	32706	36135	29171	32737	
340	0	32940	33037	32542	32670	36132	29148	32750	
341	0	32576	32199	32622	33697	36102	29165	32730	
342	0	32899	32967	32728	32662	36135	29167	32738	
343	0	32928	32647	32450	33650	36143	29161	32731	
344	0	32758	32710	32900	32607	36110	29142	32725	
345	0	32644	32406	32566	33095	36094	29140	32703	
346	0	32802	32775	32690	32620	36132	29135	32708	
347	0	32804	32639	32442	32551	36100	29133	32705	
348	0	32664	32827	32563	32150	36129	29151	32683	
349	0	32773	33267	32647	33191	36139	29133	32647	
350	0	32546	32749	32652	32295	36103	29134	32647	
351	0	32582	32511	32771	32775	36092	29138	32643	
352	0	32828	32731	32577	32559	36112	29129	32647	
353	0	32524	32054	32811	32605	36114	29117	32647	
354	0	32696	32615	32711	32696	36087	29131	32647	
355	0	32534	32772	32563	32816	36145	29111	32671	
356	0	32701	32638	32653	33122	36073	29114	32643	
357	0	32578	32674	32581	32429	36100	29125	32628	
358	0	32694	32623	32595	32792	36109	29142	32633	
359	0	32876	32589	32513	32739	36131	29126	32627	
360	0	32740	32262	32759	32366	36140	29138	32621	
361	0	32952	32886	32647	32399	36148	29140	32619	
362	0	32626	32634	32752	32957	36137	29159	32613	
363	0	32652	32122	32462	31928	36126	29157	32623	
364	0	32484	32491	32654	33670	36122	29173	32622	
365	0	32818	33313	32647	32859	36155	29201	32610	
366	0	32638	32762	32700	32834	36154	29191	32599	
367	0	32647	32728	32679	32894	36155	29184	32626	
368	0	32960	32734	32603	32747	36148	29191	32626	
369	0	32626	32717	32647	32631	36161	29202	32644	
370	0	32522	32675	32431	32798	36162	29220	32628	
371	0	32628	32925	32434	32710	36138	29211	32621	
372	0	32872	31235	32587	32751	36208	29210	32632	
373	0	33094	32528	32775	32642	36207	29219	32628	
374	0	32599	32851	32544	32831	36161	29190	32639	
375	0	32758	32731	32690	32679	36171	29179	32676	
376	0	32621	32172	32963	32583	36203	29168	32673	
377	0	32622	33247	32914	33002	36157	29140	32696	
378	0	32676	32686	32598	32653	36191	29157	32680	
379	0	32464	32423	32617	32508	36153	29181	32697	
380	0	33300	32170	32546	32702	36163	29167	32726	
381	0	32509	32208	32489	32674	36191	29208	32732	
382	0	32610	32551	32534	32773	36135	29191	32719	
383	0	33069	32662	32566	32745	36128	29219	32734	
384	0	32568	32098	32552	32711	36100	29191	32796	
385	0	32700	33057	32389	32822	36034	29220	32813	
386	0	32854	34168	32733	32915	36013	29275	32841	
387	0	32081	32442	32570	32700	35972	29325	32887	
388	0	33204	32105	32507	32852	35981	29351	32960	
389	0	32554	32562	32474	32630	35968	29354	33046	
390	0	32720	32844	32619	32725	36071	29371	33123	
391	0	32740	32744	32576	32677	36171	29314	33208	
392	0	32742	32583	32582	32738	36237	29223	33258	
393	0	32580	32100	32767	32605	36271	29173	33278	
394	0	32680	33201	32546	32721	36323	29184	33270	
395	0	32742	32418	32592	32608	36306	29239	33263	
396	0	32386	33362	32831	32690	36315	29150	33299	
397	0	33097	34043	32730	32894	36358	29222	33287	
398	0	32996	32243	32605	32676	36359	29287	33287	
399	0	32642	33356	32694	32811	36359	29287	33299	
400	0	32728	32773	32346	32820	36354	29272	33296	
401	0	32565	32976	32999	33323	36348	29229	33299	
402	0	33005	32491	32577	32577	36283	29233	33312	
403	0	32848	32887	32620	32659	36253	29307	33320	
404	0	33507	33006	32251	32726	36231	29383	33330	
405	0	32686	32311	32654	32579	36169	29392	33385	
406	0	32501	32831	32421	32866	36159	29394	33422	
407	0	32906	32107	32614	32771	36074	29479	33431	
408	0	32981	32871	32622	32795	36096	29635	33485	
409	0	32728	32762	32658	32679	36152	29691	33542	
410	0	32738	32832	32603	32800	36154	29679	33569	
411	0	32891	32866	33039	32732	36203	29664	33613	
412	0	32684	32626	32759	33537	36310	29623	33634	
413	0	32824	32786	32709	32297	36395	29540	33667	
414	0	32746	32889	32692	34237	36504	29473	33624	
415	0	32574	32735	32615	33114	36639	29342	33581	
416	0	32697	32581	32663	33557	36730	29148	33490	
417	0	32652	32587	32440	32583	36660	29080	33287	
418	0	33050	32832	32896	33948	36621	29230	33062	
419	0	32576	32575	32591	32923	36573	29437	32892	
420	0	32775	32530	32666	32667	36542	29532	32796	
421	0	32754	32663	32647	31895	36504	29568	32755	
422	0	32648	32793	32653	32408	36472	29550	32694	
423	0	32440	32503	32614	32646	36467	29562	32635	
424	0	32672	32626	32733	32299	36423	29602	32583	
425	0	32414	32758	32342	33100	36419	29669	32530	
426	0	33049	32591	32310	32439	36442	29732	32438	
427	0	32775	32542	32722	32455	36509	29782	32390	
428	0	32808	32592	32386	32610	36567	29760	32353	
429	0	32612	32690	32655	32833	36647	29719	32321	
430	0	32641	32523	32711	32678	36669	29671	32239	
431	0	32583	32654	32740	32670	36718	29650	32199	
432	0	33018	32637	32583	32722	36795	29653	32216	
433	0	32352	32481	32702	32679	36765	29610	32207	
434	0	32686	32688	32505	32540	36752	29647	32219	
435	0	33444	32619	32656	32827	36737	29691	32172	
436	0	32564	32844	32389	34210	36669	29727	32154	
437	0	32741	32711	32455	32048	36652	29764	32163	
438	0	32804	32818	33245	31815	36643	29800	32114	
439	0	32850	32594	32567	32279	36605	29819	32107	
440	0	32790	32636	32685	32931	36589	29772	32052	
441	0	32676	32722	32303	32766	36598	29766	32023	
442	0	32594	32959	32807	32960	36632	29693	32019	
443	0	32682	32698	32383	32927	36641	29592	32028	
444	0	32810	32702	32695	32671	36586	29626	32088	
445	0	32806	32594	32727	32883	36534	29687	32105	
446	0	32816	32775	32652	32838	36541	29737	32112	
447	0	32659	32623	32743	32887	36523	29735	32104	
448	0	32696	32704	32143	32924	36547	29778	32091	
449	0	32680	32627	32576	32413	36580	29790	32104	
450	0	32668	32542	32865	32823	36575	29798	32105	
451	0	33218	32637	32627	32388	36577	29813	32090	
452	0	32784	32570	32594	32962	36581	29787	32051	
453	0	32743	32816	32583	31815	36553	29733	32036	
454	0	32706	32615	32647	32954	36570	29732	32009	
455	0	32932	32695	32674	33408	36558	29690	32015	
456	0	32629	32725	32581	32491	36541	29659	32019	
457	0	33096	32762	32435	32546	36551	29725	32041	
458	0	33048	32726	32615	33054	36575	29727	32015	
459	0	32466	32634	32733	32295	36567	29756	31982	
460	0	32546	32553	32458	32954	36585	29735	31966	
461	0	32818	32707	32521	31160	36607	29703	31956	
462	0	32867	32617	32467	34750	36584	29698	31943	
463	0	33266	32827	32766	32509	36585	29703	31933	
464	0	32803	32839	32659	32263	36580	29703	31898	
465	0	32910	32708	32551	32574	36587	29690	31879	
466	0	32596	32743	32711	32971	36580	29720	31838	
467	0	32880	32836	32647	32793	36581	29715	31851	
468	0	32360	32420	32731	32703	36548	29719	31860	
469	0	32390	32882	32439	33157	36546	29755	31870	
470	0	32610	32390	32490	32704	36541	29778	31866	
471	0	32813	32679	32883	32809	36509	29780	31846	
472	0	32721	33144	32575	32241	36521	29807	31847	
473	0	32863	32617	32639	32938	36481	29795	31808	
474	0	32711	32757	32438	33030	36487	29774	31794	
475	0	32786	32687	32914	32640	36478	29775	31781	
476	0	32756	32687	32640	32698	36487	29754	31751	
477	0	32628	32571	32677	32775	36487	29721	31727	
478	0	32666	32743	32696	33298	36462	29671	31694	
479	0	33230	32573	32835	32422	36470	29665	31679	
480	0	32542	32804	32608	32602	36471	29636	31670	
481	0	32416	32615	32589	32597	36459	29599	31667	
482	0	32584	32562	32665	33056	36416	29615	31666	
483	0	32796	32824	32992	32644	36406	29593	31678	
484	0	32618	32583	32762	32815	36397	29562	31694	
485	0	32681	32818	32623	32537	36399	29517	31720	
486	0	32858	32641	32822	32903	36379	29475	31726	
487	0	32582	32690	32487	32412	36335	29464	31724	
488	0	32816	32723	32756	32703	36359	29480	31741	
489	0	32888	32549	32347	32349	36352	29465	31737	
490	0	32762	32802	32665	32594	36295	29419	31751	
491	0	32828	32763	32571	32555	36303	29430	31751	
492	0	32556	32673	32479	32864	36335	29441	31786	
493	0	32866	32738	32384	36268	36310	29450	31815	
494	0	32521	32708	32647	32466	36319	29439	31802	
495	0	32856	32775	32771	32549	36330	29435	31767	
496	0	32594	32815	32514	32796	36291	29421	31762	
497	0	32960	32646	32665	32723	36283	29401	31785	
498	0	32827	32677	32524	32749	36279	29390	31769	
499	0	32680	32583	32907	32662	36282	29341	31798	
500	0	33048	32806	32386	32627	36312	29327	31810	
501	0	32473	32698	32578	32903	36269	29255	31823	
502	0	32726	32597	32653	32675	36231	29252	31801	
503	0	32972	32815	32851	32713	36223	29255	31785	
504	0	32814	32762	32647	32647	36210	29267	31815	
505	0	32877	32701	32659	32699	36170	29291	31787	
506	0	32573	32695	32498	32711	36212	29278	31781	
507	0	32459	32679	32502	32743	36206	29223	31776	
508	0	32770	32698	32675	33022	36199	29203	31768	
509	0	32786	32592	32831	32738	36141	29210	31773	
510	0	32950	32627	32553	32145	36151	29181	31806	
511	0	32438	33018	32788	32497	36167	29151	31846	
512	0	32944	32747	32361	32478	36137	29164	31867	
513	0	32417	32444	32625	32861	36178	29212	31879	
514	0	32587	32581	32453	32933	36182	29216	31899	
515	0	32726	32791	32581	33715	36150	29191	31920	
516	0	32705	32640	32859	32595	36119	29171	31928	
517	0	32806	32722	32621	32249	36144	29163	31931	
518	0	32715	32650	32692	33150	36162	29151	31954	
519	0	32582	32743	32702	32699	36167	29137	31958	
520	0	33077	32769	32586	32706	36176	29154	31942	
521	0	32722	32707	32730	31597	36145	29169	31933	
522	0	33024	32775	32604	32914	36167	29190	31942	
523	0	32934	32713	32455	32308	36190	29240	31917	
524	0	32993	32871	32717	33495	36214	29257	31936	
525	0	32997	32694	32631	32574	36230	29267	31927	
526	0	32740	32775	32376	32791	36212	29299	31931	
527	0	32788	32802	32769	33625	36226	29319	31917	
528	0	32763	32624	32487	32291	36218	29295	31920	
529	0	32770	32739	32923	32481	36212	29314	31911	
530	0	31746	32865	32699	34359	36199	29343	31897	
531	0	32374	32527	32555	32355	36242	29357	31907	
532	0	32612	32754	32504	32617	36206	29382	31898	
533	0	32885	32815	32683	33287	36212	29363	31904	
534	0	32752	32764	32390	32563	36207	29363	31911	
535	0	33257	32728	32599	32909	36242	29387	31898	
536	0	32768	32706	32667	32822	36271	29371	31918	
537	0	32772	32733	32732	32698	36215	29332	31890	
538	0	32664	32752	32581	32898	36251	29333	31888	
539	0	32462	32718	32687	32962	36210	29319	31870	
540	0	32946	32655	32717	33193	36199	29247	31884	
541	0	32969	32791	32669	32617	36203	29215	31918	
542	0	32584	32824	32621	33251	36189	29173	31943	
543	0	32935	32704	32566	34179	36182	29181	31980	
544	0	32667	32643	32586	32470	36212	29202	31995	
545	0	32828	32447	32771	32562	36211	29223	32005	
546	0	32614	32807	32715	32897	36205	29242	31988	
547	0	32534	32571	32367	32314	36198	29257	32009	
548	0	32812	32662	32570	33709	36226	29257	32044	
549	0	32768	32757	32714	32494	36220	29233	32071	
550	0	32864	32732	32410	32847	36247	29206	32065	
551	0	32492	32666	32825	32701	36202	29170	32047	
552	0	32810	32530	32448	32626	36208	29191	32039	
553	0	32586	32744	32690	32391	36199	29230	32050	
554	0	32964	32775	32514	32871	36231	29239	32057	
555	0	32800	32711	32987	32208	36214	29254	32045	
556	0	32793	32701	32693	33583	36218	29298	32031	
557	0	32839	32754	32644	32740	36266	29327	32004	
558	0	32804	32678	33044	32748	36260	29328	31982	
559	0	32674	32749	32752	32677	36253	29343	31965	
560	0	32775	32711	32701	32403	36243	29358	31951	
561	0	32591	32699	32727	32738	36261	29391	31935	
562	0	32969	32767	32619	33159	36219	29415	31938	
563	0	32700	32711	32723	32590	36261	29429	31939	
564	0	32804	32629	32484	32591	36261	29466	31913	
565	0	32756	32827	32729	33414	36304	29469	31939	
566	0	32924	32703	32685	32285	36307	29432	31957	
567	0	32888	32589	32971	32653	36380	29410	31926	
568	0	32858	32440	32690	32459	36350	29331	31934	
569	0	32728	32868	32600	34462	36333	29267	31934	
570	0	32666	32707	32673	32123	36289	29239	31933	
571	0	33061	32543	32449	32075	36295	29247	31926	
572	0	32716	32546	32761	32075	36301	29232	31938	
573	0	32600	32775	32674	36081	36278	29231	31972	
574	0	32856	32710	32617	31904	36288	29267	31987	
575	0	32743	32886	32546	34915	36343	29291	32010	
576	0	32706	32734	32907	32355	36326	29296	32026	
577	0	32756	32706	32700	32751	36320	29366	32010	
578	0	32851	32656	32630	33488	36359	29423	32003	
579	0	32760	32607	32384	32429	36359	29446	32005	
580	0	32668	32775	32575	34535	36391	29467	32031	
581	0	32748	32520	32507	31775	36397	29488	32075	
582	0	32694	32797	32689	31088	36470	29483	32084	
583	0	32711	32547	32569	32771	36443	29466	32104	
584	0	32612	32775	32512	33566	36466	29480	32100	
585	0	32864	32578	32591	32523	36441	29503	32140	
586	0	32794	32683	32765	32973	36493	29540	32161	
587	0	32865	32946	32637	32823	36455	29570	32175	
588	0	32906	32589	32441	32739	36486	29574	32209	
589	0	32775	32699	32435	32137	36486	29616	32214	
590	0	32696	32877	32423	35940	36478	29618	32211	
591	0	32836	32736	32567	32299	36445	29630	32227	
592	0	32594	32544	32620	32762	36431	29659	32258	
593	0	32862	32352	32448	32666	36423	29687	32255	
594	0	32490	32933	32481	34548	36434	29686	32205	
595	0	32916	32671	32646	33115	36475	29683	32198	
596	0	32844	32613	32686	31838	36496	29722	32204	
597	0	32535	31947	32300	32022	36498	29730	32183	
598	0	32960	32795	32775	32173	36555	29740	32199	
599	0	32838	32702	32502	32910	36578	29757	32221	
600	0	32696	32687	32519	32911	36606	29746	32247	
601	0	32688	32620	32691	32250	36582	29737	32239	
602	0	32712	32785	32711	32166	36563	29733	32276	
603	0	32716	32597	32844	32233	36582	29759	32313	
604	0	32609	32922	32687	34324	36591	29769	32359	
605	0	32660	32711	32687	32653	36615	29764	32387	
606	0	32818	32976	32556	34003	36617	29805	32409	
607	0	32816	32319	32599	32760	36615	29767	32402	
608	0	33040	32837	33018	32327	36595	29781	32399	
609	0	33214	32111	32452	37362	36593	29800	32445	
610	0	32599	32895	32694	32076	36601	29814	32440	
611	0	32771	34207	32743	33431	36635	29814	32483	
612	0	32658	32080	32555	31957	36707	29817	32519	
613	0	32668	32562	32378	32263	36789	29822	32542	
614	0	32740	32748	32603	32516	36839	29787	32552	
615	0	32834	32967	32760	32710	36871	29842	32560	
616	0	32718	31930	32637	32824	36918	29878	32592	
617	0	32724	32647	32243	32471	36941	29890	32625	
618	0	33113	32166	32579	35218	36958	29858	32639	
619	0	32832	32844	32663	34311	36999	29861	32676	
620	0	32722	32867	32997	33447	37063	29829	32680	
621	0	32690	32315	32694	32003	37126	29775	32711	
622	0	32858	32103	32759	32120	37139	29755	32652	
623	0	32924	32807	32698	32512	37177	29703	32668	
624	0	32856	32713	32815	32703	37242	29686	32679	
625	0	32836	32563	32719	32408	37273	29654	32702	
626	0	32748	31919	32607	32064	37262	29665	32736	
627	0	32827	32596	32819	32353	37185	29666	32758	
628	0	32728	32530	32491	32555	37176	29703	32765	
629	0	32989	33696	32667	32918	37092	29735	32775	
630	0	32867	33535	32615	32903	37092	29772	32814	
631	0	32898	32116	32815	31993	37019	29824	32818	
632	0	32772	32647	32308	33919	36998	29902	32851	
633	0	32682	31959	32565	32384	36953	29949	32881	
634	0	32884	33513	32896	32578	36896	30022	32912	
635	0	32804	32591	32724	33382	36871	30079	32944	
636	0	32676	32555	32839	33285	36841	30081	33010	
637	0	32788	32469	32522	32571	36829	30086	33023	
638	0	32747	32299	33024	32720	36825	30099	33040	
639	0	32766	33723	32642	32617	36756	30123	33100	
640	0	32933	32455	32762	34091	36765	30184	33133	
641	0	32706	31697	32850	32391	36743	30206	33189	
642	0	32786	33783	32567	32741	36731	30165	33202	
643	0	32605	32677	32751	32939	36707	30164	33216	
644	0	32824	32822	32375	34096	36706	30154	33221	
645	0	32786	32510	32927	32043	36731	30119	33257	
646	0	32626	33259	32589	32711	36765	30053	33311	
647	0	32944	32722	32690	32263	36754	30172	33350	
648	0	32942	31300	32544	33337	36737	30141	33355	
649	0	32782	32607	32929	32775	36726	30162	33363	
650	0	32864	33654	32619	32499	36737	30170	33395	
651	0	32647	30714	32487	32789	36803	30193	33433	
652	0	32712	32179	32902	33223	36810	30143	33495	
653	0	32930	32972	32685	32581	36835	30099	33517	
654	0	32856	31359	32358	33165	36811	30158	33533	
655	0	33010	32925	32631	34631	36825	30210	33505	
656	0	32509	32322	32525	32482	36868	30247	33542	
657	0	33048	32391	32671	31602	36858	30244	33567	
658	0	32764	32320	32838	34131	36871	30187	33558	
659	0	32680	32621	32424	32635	36895	30207	33543	
660	0	32706	32641	32610	32759	36905	30215	33551	
661	0	32596	33122	32951	32711	36847	30251	33565	
662	0	32816	32370	32388	32775	36807	30292	33577	
663	0	32918	32391	32307	32667	36791	30387	33601	
664	0	32650	32507	32510	32826	36807	30441	33637	
665	0	32794	34603	32569	32902	36835	30490	33667	
666	0	32820	32530	32571	32655	36867	30484	33687	
667	0	32660	33250	33129	32553	36898	30456	33707	
668	0	32683	33947	32295	32488	36837	30416	33732	
669	0	32734	31367	32598	32603	36838	30418	33751	
670	0	32976	34081	32989	32811	36816	30450	33799	
671	0	32704	32428	32791	32699	36819	30415	33863	
672	0	33100	31930	32279	32677	36798	30393	33924	
673	0	32469	33664	33012	32690	36765	30375	33956	
674	0	32489	32762	32742	32735	36755	30357	33991	
675	0	33228	32467	32570	32069	36781	30298	34051	
676	0	32558	32840	32571	34025	36668	30233	34077	
677	0	32784	32838	32671	30244	36718	30278	34031	
678	0	32694	32551	32534	32249	36736	30279	33938	
679	0	32793	32620	32534	33775	36729	30263	33824	
680	0	32606	32256	32217	32425	36718	30279	33734	
681	0	32724	32775	33095	32745	36724	30314	33638	
682	0	32868	33989	32865	32720	36765	30307	33590	
683	0	32610	31926	32962	32703	36818	30276	33563	
684	0	32864	32047	32775	32887	36781	30231	33528	
685	0	32745	33038	32580	32754	36802	30208	33528	
686	0	32796	32736	32743	32843	36786	30184	33497	
687	0	32797	32135	32475	32967	36782	30159	33465	
688	0	32712	32230	32655	32658	36752	30132	33482	
689	0	32818	32431	32645	32321	36776	30116	33466	
690	0	32728	31130	32509	32562	36758	30118	33440	
691	0	32810	32351	32553	32545	36758	30106	33389	
692	0	32964	32525	32285	33850	36758	30144	33350	
693	0	32784	32578	32850	32574	36766	30144	33364	
694	0	32923	32514	32671	32485	36771	30104	33364	
695	0	32970	32455	32412	32752	36784	30026	33323	
696	0	32626	32463	32525	32831	36743	29957	33277	
697	0	32612	32527	32790	32873	36743	29910	33248	
698	0	32538	34926	32734	32995	36717	29879	33229	
699	0	33262	32941	32461	32775	36713	29908	33231	
700	0	32619	32597	32467	33912	36696	29942	33275	
701	0	32844	32039	32613	32630	36715	29946	33287	
702	0	32645	33607	32608	32732	36669	29935	33281	
703	0	32682	33065	32468	32647	36679	29950	33274	
704	0	32850	32747	32662	33387	36669	29939	33314	
705	0	32721	32738	32819	33767	36630	29910	33355	
706	0	32788	32660	32966	32567	36582	29862	33436	
707	0	32711	32455	32836	32489	36583	29849	33460	
708	0	32652	32246	32299	32638	36584	29860	33472	
709	0	32628	32707	32484	32655	36563	29831	33511	
710	0	32819	32617	32515	32655	36595	29794	33559	
711	0	32229	32635	33026	32757	36536	29785	33575	
712	0	33007	32626	32643	32698	36554	29787	33589	
713	0	32514	32571	32707	32773	36575	29778	33622	
714	0	32672	35306	32519	32815	36559	29765	33611	
715	0	32810	33309	32884	32946	36559	29732	33605	
716	0	32786	32423	32918	32817	36527	29743	33607	
717	0	32750	32598	32734	32672	36503	29772	33625	
718	0	32817	32673	32806	33147	36498	29744	33659	
719	0	32815	33145	32630	32263	36484	29703	33677	
720	0	33088	32103	32492	33287	36479	29743	33635	
721	0	32690	33287	32455	32509	36455	29756	33641	
722	0	32630	32303	32811	32704	36414	29800	33631	
723	0	32775	32879	33055	32134	36409	29831	33659	
724	0	32728	32307	32698	31583	36381	29873	33712	
725	0	32786	33568	32714	32647	36400	29831	33762	
726	0	32768	32617	32620	32702	36399	29826	33763	
727	0	32756	32881	32641	32790	36426	29895	33728	
728	0	32966	32683	32599	32557	36443	29934	33750	
729	0	33052	32396	32532	32710	36448	29895	33799	
730	0	32293	32715	32727	32826	36406	29871	33796	
731	0	32743	33078	32771	32743	36380	29842	33790	
732	0	32812	34282	32755	33415	36412	29831	33791	
733	0	32804	33223	32587	32750	36474	29859	33799	
734	0	32908	32522	32635	32826	36505	29848	33847	
735	0	32824	31220	32630	32942	36544	29853	33863	
736	0	32824	33536	32619	32850	36571	29853	33872	
737	0	32834	32455	32641	32883	36615	29872	33894	
738	0	32722	32941	32921	31867	36646	29838	33890	
739	0	32640	32515	32909	31975	36627	29810	33875	
740	0	32690	32775	32766	32646	36641	29795	33844	
741	0	33080	32669	32617	32775	36607	29794	33816	
742	0	32754	32731	32621	32685	36591	29760	33799	
743	0	32834	32547	32887	33551	36592	29759	33813	
744	0	32889	32367	32895	31505	36582	29749	33799	
745	0	32583	32645	32574	32098	36594	29725	33799	
746	0	32786	32626	32574	33031	36539	29703	33795	
747	0	32421	31353	32665	33299	36528	29727	33766	
748	0	32734	33400	32518	32978	36487	29717	33814	
749	0	32643	32286	32558	32687	36443	29748	33811	
750	0	32735	32544	32729	32658	36418	29717	33811	
751	0	32472	32629	32675	32706	36406	29690	33793	
752	0	33194	32571	32829	32759	36333	29662	33769	
753	0	32799	34181	32711	32841	36318	29641	33747	
754	0	32505	33000	32397	32647	36316	29644	33725	
755	0	32956	32096	32679	32383	36342	29695	33699	
756	0	32455	32632	32677	32614	36374	29663	33694	
757	0	32892	32487	32511	32399	36342	29629	33639	
758	0	32980	32248	32609	32461	36304	29622	33565	
759	0	32952	35473	32658	32911	36319	29614	33506	
760	0	32645	32477	32691	32799	36320	29643	33521	
761	0	32712	32573	32716	32712	36307	29635	33558	
762	0	32792	32775	32663	32882	36288	29607	33562	
763	0	33024	32763	32537	32849	36255	29584	33555	
764	0	32690	32826	32431	32694	36279	29556	33514	
765	0	32564	32486	32711	32682	36267	29497	33526	
766	0	32750	31336	32482	32603	36258	29453	33501	
767	0	32854	32511	32630	33143	36278	29430	33500	
768	0	32775	33958	32606	33015	36256	29440	33492	
769	0	32801	32647	32414	32900	36230	29442	33533	
770	0	32792	32037	32698	32466	36209	29447	33533	
771	0	32381	32450	32657	32757	36196	29458	33520	
772	0	32839	32603	32719	32651	36226	29469	33511	
773	0	32866	32227	32418	32626	36244	29468	33533	
774	0	32770	33402	32499	32853	36220	29426	33559	
775	0	32672	32223	32577	32579	36247	29442	33567	
776	0	32624	32647	32864	32903	36270	29437	33603	
777	0	32605	32466	32615	32775	36263	29400	33623	
778	0	32584	32459	32411	32762	36255	29399	33597	
779	0	33004	32949	32670	32613	36255	29376	33638	
780	0	33052	32587	32950	32865	36218	29379	33655	
781	0	32658	33893	31969	32690	36267	29365	33670	
782	0	32634	32759	32675	32855	36222	29344	33661	
783	0	32617	32263	32664	32035	36231	29364	33651	
784	0	32700	32349	32711	32834	36182	29398	33664	
785	0	32798	32612	32669	32662	36155	29413	33680	
786	0	32592	32206	32527	32675	36165	29444	33629	
787	0	32540	32455	32514	32746	36191	29446	33644	
788	0	32897	32677	32502	32707	36198	29446	33671	
789	0	32640	32786	32803	32758	36183	29418	33682	
790	0	32665	32605	32726	32730	36203	29440	33691	
791	0	32843	32455	32834	32803	36231	29424	33725	
792	0	32757	33383	32850	32738	36207	29377	33685	
793	0	33168	32423	32522	32763	36199	29371	33679	
794	0	32672	32622	32436	32665	36215	29394	33725	
795	0	32692	32711	32696	33151	36188	29355	33763	
796	0	32854	33459	32690	33042	36126	29336	33763	
797	0	32675	34491	32854	32940	36118	29369	33747	
798	0	32742	32611	32746	32711	36164	29409	33791	
799	0	32576	32967	32039	32592	36148	29369	33793	
800	0	32559	32187	32925	32711	36139	29338	33780	
801	0	33380	32985	32498	32813	36150	29351	33792	
802	0	32602	32817	31824	32825	36191	29350	33839	
803	0	32662	32413	33515	32631	36151	29328	33854	
804	0	32572	36519	32731	33117	36109	29314	33875	
805	0	32663	31874	32756	32594	36095	29332	33892	
806	0	32808	32555	32263	32652	36069	29319	33960	
807	0	32552	31591	32720	32601	36045	29293	33984	
808	0	32772	32147	32387	32685	36070	29290	33983	
809	0	32742	32358	32908	32791	36059	29295	33951	
810	0	32416	32523	32363	32288	36044	29271	33904	
811	0	32728	32829	32862	31793	36066	29255	33841	
812	0	32516	32994	32199	32583	36079	29262	33757	
813	0	33040	33030	32799	32784	36086	29236	33709	
814	0	32745	33122	32527	32560	36050	29267	33671	
815	0	32690	31818	32159	32507	36076	29284	33689	
816	0	32352	32369	32478	32601	36083	29330	33680	
817	0	32854	32105	32587	32580	36075	29329	33715	
818	0	32560	33771	32191	32422	36050	29286	33697	
819	0	32837	32674	33220	32839	36072	29318	33714	
820	0	32552	33254	32438	32763	36097	29333	33716	
821	0	33446	32620	32806	32806	36133	29339	33703	
822	0	32987	32753	32736	32729	36123	29362	33657	
823	0	32537	32773	32578	32884	36142	29392	33625	
824	0	33508	32748	32529	32752	36146	29371	33599	
825	0	32680	34169	32832	32107	36167	29316	33583	
826	0	32479	34848	32123	31989	36103	29278	33528	
827	0	32984	32065	32241	32581	36109	29283	33483	
828	0	32602	32296	32903	32538	36123	29319	33438	
829	0	32748	32424	32141	32466	36097	29342	33382	
830	0	32546	32741	32781	32850	36099	29335	33330	
831	0	32549	32064	32710	32619	36160	29348	33348	
832	0	32504	33655	32758	32422	36165	29360	33410	
833	0	32844	31751	32595	33019	36210	29303	33431	
834	0	33091	32821	32700	32635	36197	29283	33445	
835	0	32100	32402	32578	32667	36207	29279	33453	
836	0	32662	32655	31814	32681	36247	29300	33437	
837	0	33175	33379	32299	32797	36239	29338	33387	
838	0	32713	32160	32554	32415	36219	29346	33339	
839	0	32583	32156	32305	32263	36230	29353	33351	
840	0	32589	32699	32325	32752	36231	29366	33351	
841	0	32710	30941	33138	32727	36263	29379	33315	
842	0	33476	32848	32439	34553	36242	29375	33274	
843	0	32528	32590	32466	33283	36248	29380	33271	
844	0	32710	33012	32865	32705	36243	29379	33240	
845	0	32784	32359	32528	32699	36237	29388	33192	
846	0	32816	32621	32950	32698	36230	29373	33149	
847	0	32775	31655	32114	32630	36207	29351	33137	
848	0	33085	32308	32495	32613	36186	29364	33178	
849	0	33118	32439	32681	32820	36311	29408	33248	
850	0	32450	32359	32581	32588	36255	29341	33324	
851	0	32327	31691	32611	32333	36221	29248	33349	
852	0	34021	33063	32851	32595	36231	29248	33321	
853	0	33674	32487	33114	32809	36226	29302	33306	
854	0	32504	31873	32582	32249	36218	29343	33370	
855	0	32644	36656	32846	33119	36211	29291	33400	
856	0	32441	32278	32804	32941	36214	29319	33334	
857	0	32796	31738	32426	32667	36255	29292	33263	
858	0	32880	32278	32116	32359	36173	29310	33215	
859	0	32192	32295	32282	32683	36173	29340	33181	
860	0	33153	32582	32722	32666	36199	29359	33168	
861	0	32421	32215	32734	32640	36152	29362	33133	
862	0	32696	32790	32647	33010	36130	29362	33091	
863	0	32582	32819	32610	32730	36178	29363	33028	
864	0	32722	31121	32490	32711	36185	29372	32993	
865	0	33027	32528	32472	32455	36188	29346	32972	
866	0	32756	32595	32658	32742	36167	29334	32995	
867	0	32783	32333	32838	32626	36193	29347	32967	
868	0	33351	33271	33018	32926	36190	29339	32967	
869	0	32889	32879	32874	32793	36205	29323	32935	
870	0	32775	31548	32310	32562	36176	29282	32918	
871	0	32490	32263	32450	32929	36155	29244	32902	
872	0	32954	33506	32791	32512	36127	29221	32936	
873	0	32569	32297	32587	32427	36146	29225	32974	
874	0	32963	32627	32540	32707	36189	29202	32979	
875	0	32971	33152	32642	32847	36163	29218	32946	
876	0	33008	33799	32595	32775	36191	29266	32941	
877	0	32692	33560	32958	32789	36206	29277	33016	
878	0	32788	32583	32594	32610	36167	29259	33067	
879	0	32878	32509	32671	32717	36159	29255	33080	
880	0	32408	31874	32647	32775	36167	29250	33058	
881	0	32746	32411	32555	32562	36176	29245	33059	
882	0	32633	32493	32699	32599	36178	29266	33068	
883	0	33082	33979	32734	32815	36167	29232	33094	
884	0	32640	32343	33124	32679	36167	29252	33118	
885	0	32595	32701	32289	32826	36188	29289	33176	
886	0	32932	32729	32711	32749	36128	29270	33219	
887	0	33222	32411	32887	32717	36114	29298	33208	
888	0	32749	32562	32850	32688	36182	29303	33234	
889	0	32729	32664	32146	33323	36213	29279	33214	
890	0	32650	32653	32790	32443	36214	29245	33192	
891	0	32800	32466	32731	32732	36231	29239	33166	
892	0	32921	32595	32382	33191	36231	29254	33138	
893	0	32890	32773	32425	32455	36247	29266	33158	
894	0	32558	32632	32947	32715	36283	29271	33139	
895	0	32749	32814	32586	32643	36263	29262	33126	
896	0	32970	32582	32631	32631	36238	29245	33117	
897	0	32756	33599	32572	32169	36213	29221	33103	
898	0	32696	31239	32283	32699	36207	29218	33113	
899	0	32698	34015	31858	32721	36191	29237	33131	
900	0	32812	31969	32762	32714	36197	29229	33142	
901	0	32632	33755	32703	32762	36196	29249	33142	
902	0	32996	32327	32756	32593	36137	29282	33150	
903	0	32989	31897	32379	32673	36133	29323	33129	
904	0	32826	33362	32643	32775	36130	29311	33154	
905	0	32292	32233	32721	32619	36141	29350	33159	
906	0	32788	31763	32501	32623	36163	29355	33159	
907	0	32791	33784	32495	33442	36174	29346	33209	
908	0	32820	32421	32639	32688	36196	29309	33209	
909	0	32644	32696	32466	32709	36218	29280	33199	
910	0	32902	32974	32587	32631	36196	29269	33190	
911	0	32916	32947	32671	32682	36189	29285	33223	
912	0	32524	32655	32824	32571	36147	29299	33252	
913	0	32908	32198	32831	32742	36153	29315	33271	
914	0	33212	33089	32921	32775	36175	29319	33258	
915	0	32610	33347	32327	32640	36167	29305	33287	
916	0	32964	32382	32658	32833	36145	29296	33287	
917	0	33048	32951	32407	32804	36135	29306	33311	
918	0	32509	32600	32254	32699	36139	29292	33318	
919	0	32772	32503	32791	32657	36126	29307	33287	
920	0	33030	31809	32167	32810	36110	29319	33283	
921	0	32720	32488	32624	32730	36135	29359	33287	
922	0	32356	32657	32423	32706	36211	29358	33273	
923	0	32434	32708	32646	32666	36189	29335	33222	
924	0	32488	32661	33278	32646	36228	29263	33229	
925	0	32614	32706	32229	32289	36247	29255	33177	
926	0	32978	32285	32789	32624	36275	29279	33181	
927	0	32293	32189	32735	32693	36273	29312	33183	
928	0	32448	32191	32439	32407	36238	29277	33202	
929	0	33056	32431	32635	33378	36253	29278	33213	
930	0	32802	34374	32729	32790	36198	29288	33200	
931	0	32989	32339	32358	32510	36231	29270	33212	
932	0	32969	32530	32741	32448	36240	29286	33223	
933	0	32647	32175	32341	32642	36201	29360	33199	
934	0	33001	32398	32914	32295	36120	29227	33206	
935	0	32556	32944	32827	36663	36137	29218	33222	
936	0	32698	32992	32723	32612	36167	29251	33207	
937	0	33044	32285	32864	32773	36207	29306	33213	
938	0	32767	32455	32527	32775	36199	29259	33187	
939	0	32632	32800	32567	32883	36247	29246	33130	
940	0	33203	32740	32551	32642	36222	29291	33123	
941	0	32745	32775	32809	32744	36196	29326	33146	
942	0	32800	32147	32846	32621	36143	29258	33127	
943	0	32552	31552	32868	32301	36200	29252	33122	
944	0	33232	32302	32455	33050	36222	29271	33127	
945	0	32827	32213	32839	32498	36167	29261	33121	
946	0	32572	32254	32441	33058	36071	29255	33132	
947	0	32848	32611	32701	32762	36090	29227	33131	
948	0	32775	31849	32711	32760	36105	29240	33126	
949	0	32689	34390	32568	32662	36145	29282	33158	
950	0	32459	32492	32621	32700	36160	29266	33183	
951	0	32798	32532	32711	32722	36139	29209	33196	
952	0	32854	33247	32486	32775	36127	29197	33175	
953	0	32758	32263	32310	32902	36167	29265	33159	
954	0	32448	32730	32361	32872	36148	29279	33159	
955	0	32998	32694	32514	33064	36141	29255	33187	
956	0	32825	32140	32579	33050	36118	29245	33183	
957	0	32580	36103	33101	32953	36148	29219	33163	
958	0	32651	32285	32773	32704	36126	29270	33122	
959	0	32800	32340	32581	32711	36095	29242	33125	
960	0	32982	32441	32399	32742	36094	29191	33151	
961	0	32694	32550	32576	32804	36120	29200	33152	
962	0	32876	32163	32540	32711	36097	29177	33206	
963	0	32670	32590	32673	32763	36079	29173	33231	
964	0	32616	32606	32711	32756	36079	29174	33229	
965	0	32626	34486	32791	32873	36061	29191	33223	
966	0	33146	32360	32879	32653	36128	29227	33235	
967	0	32758	32452	32771	32729	36153	29227	33245	
968	0	32775	32807	32386	32663	36133	29233	33217	
969	0	32684	32707	32825	32746	36131	29207	33215	
970	0	32099	32596	32607	32847	36071	29214	33216	
971	0	32844	33507	32523	32855	36059	29221	33213	
972	0	32570	32192	32210	32876	36047	29204	33258	
973	0	32816	35741	33023	31567	36025	29189	33259	
974	0	32888	34736	32552	32621	36063	29168	33236	
975	0	32700	32819	32570	32568	36039	29153	33166	
976	0	32775	31623	32599	32772	36038	29140	33143	
977	0	32696	32837	32351	32591	36028	29117	33120	
978	0	32648	32277	32973	32637	35987	29147	33119	
979	0	32853	33776	32338	32474	35994	29127	33110	
980	0	32418	32564	32578	33063	35975	29123	33112	
981	0	32898	31106	32702	32647	35975	29115	33133	
982	0	32576	32407	32765	32786	36022	29106	33130	
983	0	32673	32540	33129	32698	36067	29119	33140	
984	0	32484	32104	32614	32530	36045	29113	33152	
985	0	32948	33811	32723	32751	36013	29082	33124	
986	0	33532	32456	32292	32765	36029	29138	33098	
987	0	32420	32679	32636	32769	35965	29114	33155	
988	0	32562	32756	32736	32662	35924	29084	33170	
989	0	32872	32406	32724	32775	35905	29050	33199	
990	0	32512	33370	32340	32726	35958	29042	33174	
991	0	33170	32487	33090	32698	35993	29054	33146	
992	0	32688	32610	32583	32742	36031	29021	33159	
993	0	32482	32683	32592	32775	35963	29037	33135	
994	0	32796	32706	32687	32764	35914	28996	33145	
995	0	32662	32775	32601	32738	35906	28977	33147	
996	0	32448	32559	32460	32647	35826	28951	33114	
997	0	32903	32595	32658	32739	35799	28915	33152	
998	0	32839	32743	32665	32738	35865	28929	33154	
999	0	32656	32740	32494	32673	35847	28966	33175	
1000	0	32804	32717	32515	32775	35911	28976	33156	
1001	0	32512	32564	32536	32775	35840	28980	33147	
1002	0	32914	32679	32427	32743	35808	28951	33095	
1003	0	32622	32617	32560	32806	35762	28935	33103	
1004	0	33403	32711	32791	32831	35759	28935	33083	
1005	0	32603	32719	32701	32822	35823	28903	33095	
1006	0	32684	32225	32497	32527	35819	28900	33103	
1007	0	33138	32858	32726	32870	35840	28938	33106	
1008	0	32626	32384	32680	32678	35871	28988	33091	
1009	0	32690	34150	33159	32768	35753	28967	33055	
1010	0	32803	29883	32484	32871	35764	28905	33059	
1011	0	32907	32992	32640	32598	35767	28887	33054	
1012	0	32594	32647	32815	32579	35769	28881	33088	
1013	0	32903	32646	32158	32541	35783	28864	33104	
1014	0	32504	32773	32874	32883	35863	28927	33114	
1015	0	32429	32744	32709	33182	35832	28955	33123	
1016	0	32824	32703	32455	33018	35751	28892	33087	
1017	0	32770	32711	32653	32567	35764	28841	33060	
1018	0	32727	32560	32617	32786	35805	28839	33082	
1019	0	32734	32688	32711	32762	35806	28904	33058	
1020	0	32989	32571	32654	32761	35792	28922	33069	
1021	0	32704	32692	32534	32773	35749	28918	33030	
1022	0	32621	32541	32589	32592	35725	28926	33023	
1023	0	33078	32999	32710	32799	35795	28898	33035	
1024	0	32398	32656	32742	32751	35616	28851	33035	
1025	0	32694	32684	32801	32762	35648	28834	33043	
1026	0	32879	33921	32775	32918	35719	28843	33072	
1027	0	32603	32078	32921	32723	35677	28877	33102	
1028	0	32864	32502	32387	32802	35707	28867	33121	
1029	0	32729	32610	32423	32775	35686	28870	33097	
1030	0	32712	32943	32616	32775	35706	28875	33100	
1031	0	32810	32327	32948	32714	35687	28896	33123	
1032	0	32384	32423	32494	32742	35728	28882	33178	
1033	0	32410	32583	32295	32798	35755	28854	33191	
1034	0	32928	32587	32690	32755	35715	28806	33166	
1035	0	32645	32647	32658	32623	35608	28807	33167	
1036	0	32459	32751	32821	32643	35538	28741	33152	
1037	0	32806	32627	32153	32277	35544	28720	33144	
1038	0	32732	32711	32563	32889	35552	28662	33117	
1039	0	32814	32602	33113	33183	35553	28636	33095	
1040	0	32876	32823	32688	33494	35603	28647	33059	
1041	0	32793	32566	32537	32798	35573	28638	33036	
1042	0	32754	32666	32647	32366	35538	28660	33002	
1043	0	32856	32566	32323	33231	35497	28671	32999	
1044	0	32950	32455	32738	33121	35554	28670	33011	
1045	0	32784	32598	32557	32685	35561	28653	32979	
1046	0	32768	32463	32572	32735	35557	28668	32950	
1047	0	32922	32775	32500	32856	35548	28711	32951	
1048	0	32652	32838	32738	33506	35565	28740	32949	
1049	0	32860	32773	32758	33023	35513	28762	32943	
1050	0	32690	32447	32558	31831	35533	28746	32911	
1051	0	32681	32759	32358	32434	35525	28703	32967	
1052	0	32808	32807	32525	32775	35502	28674	32967	
1053	0	32488	32775	32521	33199	35527	28671	32960	
1054	0	32840	32481	32771	32624	35509	28679	32967	
1055	0	32868	32549	32549	32491	35501	28698	32948	
1056	0	32610	33615	32775	32566	35417	28643	32982	
1057	0	33296	32775	32508	32723	35428	28614	32976	
1058	0	32532	32667	32384	32731	35407	28626	32999	
1059	0	33152	32850	32650	32757	35418	28664	33008	
1060	0	32660	32634	32725	32807	35452	28646	33008	
1061	0	32903	32362	32877	32823	35434	28667	33016	
1062	0	32678	33117	32734	32836	35472	28710	33041	
1063	0	32784	32479	32420	32793	35463	28699	33074	
1064	0	32334	32647	32371	32773	35433	28679	33113	
1065	0	33051	32716	32615	32739	35358	28662	33115	
1066	0	32621	32820	32743	32839	35361	28616	33116	
1067	0	32775	32846	32455	32817	35391	28583	33099	
1068	0	32613	32752	32863	32763	35371	28570	33082	
1069	0	33716	32705	32663	32797	35370	28562	33083	
1070	0	32560	32767	32813	32664	35335	28562	33080	
1071	0	32612	32888	32543	32616	35320	28579	33099	
1072	0	33333	32813	32562	32736	35330	28603	33117	
1073	0	32574	34189	32315	32798	35327	28603	33146	
1074	0	32674	32159	32559	32609	35335	28596	33175	
1075	0	32688	32519	32366	32701	35280	28558	33200	
1076	0	32835	32545	32544	32879	35232	28538	33211	
1077	0	32714	32670	32463	32635	35245	28528	33207	
1078	0	33009	32759	32579	32721	35224	28558	33227	
1079	0	32724	32800	32719	33863	35224	28580	33241	
1080	0	32509	32855	32690	32999	35234	28546	33228	
1081	0	32744	32775	32954	32399	35207	28535	33199	
1082	0	32746	32647	32594	32775	35207	28541	33174	
1083	0	32594	32738	32516	32890	35235	28534	33138	
1084	0	32764	32631	32766	31970	35207	28513	33132	
1085	0	32957	32877	32507	32899	35191	28487	33116	
1086	0	32741	31943	32578	33063	35219	28492	33091	
1087	0	32820	32647	33240	32557	35218	28451	33095	
1088	0	32510	32278	32869	32647	35202	28467	33089	
1089	0	32808	32643	32332	32378	35226	28474	33093	
1090	0	32878	32775	32590	33779	35236	28496	33062	
1091	0	32590	33019	32505	32958	35271	28467	33024	
1092	0	32872	32370	32981	32967	35266	28463	33002	
1093	0	32692	32553	32413	32735	35287	28502	33025	
1094	0	33012	32487	32514	32768	35235	28530	33018	
1095	0	33124	32647	32711	32763	35234	28496	33014	
1096	0	32714	32839	32749	32635	35235	28481	33024	
1097	0	32480	32865	32690	32793	35252	28508	32980	
1098	0	32968	32765	32519	32549	35229	28494	32954	
1099	0	32630	32690	32739	32763	35227	28505	32976	
1100	0	32945	32753	32586	32940	35220	28521	32999	
1101	0	32809	32839	32711	32615	35191	28518	32981	
1102	0	32720	33335	32925	32640	35165	28506	32965	
1103	0	32750	32719	32528	33279	35167	28496	32971	
1104	0	32713	32628	32784	32595	35214	28510	32973	
1105	0	32750	32709	32492	32654	35171	28518	32975	
1106	0	32851	32775	32518	32820	35228	28506	32985	
1107	0	32782	32742	32599	32749	35254	28539	32989	
1108	0	32765	32611	32431	32751	35219	28537	32966	
1109	0	32624	32704	32860	32685	35194	28553	32927	
1110	0	32908	32801	32823	33223	35214	28566	32903	
1111	0	33480	32567	32626	32817	35218	28542	32886	
1112	0	33140	32675	32607	32743	35193	28523	32867	
1113	0	32514	32839	32591	32808	35200	28530	32850	
1114	0	32775	32659	32470	32775	35196	28518	32847	
1115	0	32884	32775	32775	33042	35199	28511	32839	
1116	0	32728	31662	32708	33065	35199	28503	32855	
1117	0	32598	32924	32677	32711	35259	28499	32858	
1118	0	32808	32570	32988	32827	35242	28464	32871	
1119	0	32864	32757	32775	32775	35220	28432	32881	
1120	0	32736	32883	32775	32931	35199	28450	32898	
1121	0	32754	32525	32788	32722	35197	28440	32887	
1122	0	32177	32719	32526	32731	35187	28439	32890	
1123	0	32904	32711	32327	32788	35146	28444	32896	
1124	0	32476	32656	32547	32624	35137	28402	32916	
1125	0	33096	32889	32594	32775	35127	28413	32908	
1126	0	32478	32567	32522	32674	35138	28435	32903	
1127	0	32678	32609	32583	32694	35152	28419	32903	
1128	0	32647	32546	32659	32763	35077	28398	32894	
1129	0	32976	32871	32723	32832	35073	28411	32902	
1130	0	32688	32710	32623	32870	35111	28405	32889	
1131	0	32592	32487	32768	32747	35069	28406	32896	
1132	0	32893	32703	32563	32834	35068	28418	32903	
1133	0	32925	32703	32504	32690	35126	28404	32903	
1134	0	32687	32594	32685	32647	35104	28404	32881	
1135	0	32704	32832	32766	32135	35158	28382	32823	
1136	0	33128	32797	32583	32184	35152	28360	32801	
1137	0	32704	32594	32961	32719	35172	28382	32800	
1138	0	32809	32709	32368	32644	35175	28403	32775	
1139	0	32296	32813	32610	32775	35134	28402	32775	
1140	0	33344	32233	32569	32534	35127	28420	32811	
1141	0	32464	33534	32620	32844	35118	28447	32809	
1142	0	32765	33963	32708	32789	35150	28483	32819	
1143	0	32438	32966	32613	32700	35165	28503	32815	
1144	0	32837	32775	33075	32671	35165	28503	32834	
1145	0	32742	32748	32800	32768	35137	28480	32859	
1146	0	32588	32626	32518	32768	35111	28470	32860	
1147	0	32690	32710	32611	32802	35139	28479	32854	
1148	0	33072	32741	32554	32736	35137	28451	32838	
1149	0	32790	32763	32370	32760	35122	28436	32838	
1150	0	32679	32647	32800	32761	35119	28455	32810	
1151	0	32676	32729	32650	32805	35126	28455	32789	
1152	0	32893	32704	32557	32515	35110	28443	32784	
1153	0	33200	32647	32211	33089	35083	28404	32774	
1154	0	32378	32679	32628	32569	35107	28443	32773	
1155	0	32908	32869	32522	32775	35040	28420	32748	
1156	0	32522	32763	32537	32831	35080	28431	32739	
1157	0	32879	32654	32559	32775	35080	28409	32747	
1158	0	32592	32754	32725	32735	35097	28398	32751	
1159	0	32839	32629	32750	32757	35113	28368	32751	
1160	0	32647	32783	32756	32757	35120	28338	32743	
1161	0	32836	32621	32692	32721	35107	28359	32719	
1162	0	32677	32519	32775	32775	35122	28374	32728	
1163	0	32857	32729	32614	32654	35109	28385	32748	
1164	0	32821	32533	32525	32723	35073	28417	32735	
1165	0	32752	32631	32390	32701	35083	28429	32739	
1166	0	32669	32660	32503	32790	35088	28435	32734	
1167	0	32653	32722	32846	32962	35079	28431	32762	
1168	0	32920	32663	32373	32786	35061	28407	32775	
1169	0	32987	32339	32465	32583	35075	28410	32809	
1170	0	32966	32333	32517	32707	35058	28405	32827	
1171	0	33030	32579	32615	32798	35084	28438	32870	
1172	0	32460	32631	32590	32699	35066	28478	32867	
1173	0	32808	32662	32550	32829	35111	28523	32870	
1174	0	32562	32929	32798	32831	35091	28535	32899	
1175	0	32796	32558	32617	32582	35119	28516	32955	
1176	0	32731	32562	32424	32766	35075	28476	32995	
1177	0	32656	32655	32690	32617	35089	28462	32992	
1178	0	32812	32500	32683	32791	35143	28462	32997	
1179	0	32900	32787	32748	32797	35101	28461	33025	
1180	0	32848	32748	32655	32692	35113	28461	33031	
1181	0	32921	32699	33159	32787	35120	28471	33027	
1182	0	32688	32799	32621	32748	35124	28459	32997	
1183	0	32720	32717	32632	32775	35068	28430	32992	
1184	0	32530	32591	32558	32694	35097	28406	32975	
1185	0	32886	32547	32884	32775	35088	28397	32963	
1186	0	32706	32578	32547	32680	35076	28396	32933	
1187	0	32485	32761	32435	32718	35077	28394	32911	
1188	0	33142	32741	32502	32743	35068	28413	32903	
1189	0	32748	32529	32542	32694	35066	28427	32897	
1190	0	32643	32612	32642	32798	35087	28435	32884	
1191	0	33250	32734	32583	32710	35047	28401	32903	
1192	0	32792	32626	32809	32768	35047	28392	32941	
1193	0	32764	32690	32764	32671	35067	28394	32973	
1194	0	32600	32583	32296	32810	35055	28386	32959	
1195	0	32238	32818	32514	32716	35031	28397	33002	
1196	0	32922	32742	32563	32658	35001	28384	33019	
1197	0	32855	32377	32658	32795	35012	28368	33023	
1198	0	32656	33017	32647	33287	35021	28360	33010	
1199	0	33223	32412	32405	32838	35052	28348	32996	
1200	0	32583	32690	32695	32727	35049	28363	32954	
1201	0	32916	32735	32773	32793	35059	28355	32946	
1202	0	32844	32816	32995	33015	35090	28386	32919	
1203	0	32748	32811	32568	33451	35075	28439	32907	
1204	0	32825	32752	32690	32759	35069	28412	32919	
1205	0	32748	32706	32527	32704	35044	28398	32898	
1206	0	32838	32769	32494	32676	35024	28387	32882	
1207	0	32773	32823	32685	32720	35045	28358	32877	
1208	0	32692	32599	32788	32807	35049	28359	32865	
1209	0	33024	32749	32534	32484	35074	28363	32856	
1210	0	32748	32733	32480	33026	35063	28355	32864	
1211	0	32808	32487	32594	32611	35047	28362	32852	
1212	0	32547	32771	32740	32647	23625	22325	32231	
1213	0	32738	33003	32752	32871	37323	26013	32728	
1214	0	33030	32583	32671	32742	36250	28770	33095	
1215	0	32745	32641	32585	32819	36039	30727	32857	
1216	0	33068	32800	32646	32745	36189	29933	32684	
1217	0	32402	32542	32525	32771	35646	29971	32538	
1218	0	33245	32775	32696	32797	35541	29172	32010	
1219	0	32662	32385	32440	32749	35539	28639	32016	
1220	0	32544	32723	32574	32653	35430	28411	32876	
1221	0	33125	32094	32931	32578	35792	28308	33607	
1222	0	33107	32361	32657	32876	36039	28175	33991	
1223	0	32828	32710	32429	32707	38973	30751	35743	
1224	0	32738	32894	32678	32797	28485	26399	29849	
1225	0	33027	32691	32376	32809	33031	25415	31120	
1226	0	32600	32588	32586	32647	35986	28648	32727	
1227	0	32848	32624	33012	32775	34963	29049	33128	
1228	0	32624	32528	32575	32717	35122	28502	32972	
1229	0	32642	32722	32679	32835	35015	28374	32775	
1230	0	32738	32734	32910	32683	35072	28478	32775	
1231	0	32982	32873	32516	32795	35061	28399	32835	
1232	0	32544	32679	32364	32613	35013	28310	32854	
1233	0	32429	32473	32790	32775	35019	28405	32867	
1234	0	32990	32835	32755	32690	35063	28469	32894	
1235	0	32800	32751	32594	32664	35063	28434	32876	
1236	0	32800	32647	32557	32754	35034	28419	32865	
1237	0	32626	32750	32592	32749	35058	28441	32876	
1238	0	32600	32655	32599	32771	35100	28435	32887	
1239	0	32720	32703	32540	32611	35097	28425	32882	
1240	0	33000	32659	32647	32711	35072	28423	32887	
1241	0	32830	32751	32538	32685	35093	28419	32866	
1242	0	32672	32772	32546	32725	35069	28406	32861	
1243	0	32457	32723	32895	33018	35051	28404	32839	
1244	0	32464	32704	32743	32816	35029	28387	32848	
1245	0	32640	32613	32564	32678	35025	28378	32839	
1246	0	33008	32743	32589	32598	35015	28363	32846	
1247	0	32690	32592	32655	32695	35026	28343	32859	
1248	0	32789	32775	32313	32794	35027	28295	32837	
1249	0	32392	32663	32287	32766	34982	28329	32827	
1250	0	32856	32670	32741	32793	35015	28335	32860	
1251	0	32864	32729	32891	32727	34950	28339	32912	
1252	0	32906	32718	32647	32614	34981	28352	32903	
1253	0	32485	32550	32497	32793	34959	28353	32900	
1254	0	33512	32903	32790	32746	34951	28375	32903	
1255	0	32408	32447	32531	32813	34972	28396	32921	
1256	0	32870	32771	32806	32831	34970	28397	32955	
1257	0	32615	32846	32952	32815	34967	28368	32945	
1258	0	32619	32890	32694	32791	35040	28363	32937	
1259	0	32711	32583	32483	32806	35026	28381	32930	
1260	0	32788	32365	32853	32632	34969	28382	32928	
1261	0	32973	33054	32741	32519	35001	28403	32918	
1262	0	32418	32479	32670	32669	35031	28424	32927	
1263	0	32754	32725	32647	32323	35026	28416	32926	
1264	0	32876	32563	32899	32745	35081	28392	32934	
1265	0	32814	32736	32602	32727	35111	28417	32922	
1266	0	32620	32708	32391	32535	35047	28423	32892	
1267	0	32688	32748	32479	32742	35035	28371	32887	
1268	0	32850	32726	32775	32842	35015	28363	32880	
1269	0	32752	32798	32495	32736	35031	28369	32871	
1270	0	32888	32567	32585	32647	35049	28396	32866	
1271	0	32498	33021	32752	32823	35083	28386	32882	
1272	0	32664	32623	32609	32735	35053	28396	32885	
1273	0	33008	32793	32602	32639	35067	28399	32886	
1274	0	32346	32647	32427	32770	35072	28412	32911	
1275	0	33044	32771	32344	32786	35082	28459	32903	
1276	0	32911	32589	32296	32792	35111	28465	32934	
1277	0	32762	32591	32621	32807	35082	28481	32943	
1278	0	32547	32742	32755	32739	35128	28456	32930	
1279	0	32808	32658	32720	32639	35110	28474	32888	
1280	0	32484	32662	32187	32767	35045	28443	32903	
1281	0	32813	32594	32690	32678	35137	28442	32920	
1282	0	33070	32544	32421	32674	35127	28466	32887	
1283	0	32344	32666	32587	32791	35049	28456	32903	
1284	0	32851	32694	32544	32696	35043	28429	32894	
1285	0	32540	32694	32528	32798	35088	28468	32883	
1286	0	32816	32555	32608	32755	35064	28446	32856	
1287	0	33106	32761	32815	32718	35064	28389	32857	
1288	0	32586	32626	32700	32652	35045	28359	32839	
1289	0	32872	32763	32635	32612	35013	28363	32784	
1290	0	32512	32554	33133	32765	35039	28332	32775	
1291	0	33044	32749	32435	32775	35071	28364	32767	
1292	0	32784	32633	32734	32775	35056	28356	32775	
1293	0	33106	32538	32903	32807	35101	28396	32786	
1294	0	32686	32603	32452	32729	35018	28411	32746	
1295	0	32655	32683	32439	32608	35052	28414	32773	
1296	0	32489	32646	32642	32721	35055	28443	32790	
1297	0	33097	32578	32767	32775	35012	28416	32775	
1298	0	32370	32973	32475	32587	35122	28439	32798	
1299	0	32708	32504	32748	32711	35143	28451	32790	
1300	0	32396	32594	32726	32763	35017	28422	32801	
1301	0	32448	32557	32555	32805	35054	28429	32795	
1302	0	32370	32754	32481	32746	35090	28450	32819	
1303	0	32710	32733	33017	32870	35117	28436	32817	
1304	0	32716	32745	32775	32717	35075	28395	32824	
1305	0	32875	32615	32740	32694	35109	28385	32809	
1306	0	32929	32768	32633	32829	35083	28405	32807	
1307	0	33152	32658	32623	32789	35069	28407	32813	
1308	0	32950	32725	32694	32775	35086	28415	32811	
1309	0	32457	32682	32570	32681	34983	28384	32809	
1310	0	32712	32757	32479	32815	35045	28383	32795	
1311	0	32688	32775	32844	32676	35113	28439	32832	
1312	0	32920	32612	32775	32690	35074	28437	32826	
1313	0	32700	32554	32592	32750	34992	28450	32809	
1314	0	33302	32620	32578	32729	35096	28417	32832	
1315	0	32514	32798	32540	32760	35077	28455	32826	
1316	0	32185	32483	32435	32735	34989	28397	32823	
1317	0	32685	32581	32759	32790	35087	28395	32868	
1318	0	32476	32723	32519	32771	35010	28422	32856	
1319	0	32612	32400	32553	32641	34962	28396	32881	
1320	0	32428	32671	32556	32771	35067	28395	32884	
1321	0	32856	32562	32630	32727	35004	28394	32883	
1322	0	32600	32787	32640	32690	35007	28367	32903	
1323	0	32489	32696	32594	32762	35053	28388	32935	
1324	0	32500	32638	32652	33115	34976	28383	32914	
1325	0	32885	32819	32661	32939	35054	28396	32913	
1326	0	32530	32578	32523	32698	35046	28394	32886	
1327	0	32856	32690	32343	32576	34999	28338	32884	
1328	0	33128	32611	32563	32739	35072	28370	32883	
1329	0	32790	32700	33270	32773	35109	28386	32832	
1330	0	32788	32537	32435	32764	35031	28411	32812	
1331	0	32312	32751	32487	32625	35047	28393	32835	
1332	0	32688	32538	32829	32674	35067	28406	32802	
1333	0	32741	32500	32347	32787	35047	28391	32800	
1334	0	32402	32694	32698	32775	35049	28383	32791	
1335	0	32660	32759	32817	32756	35045	28394	32804	
1336	0	32590	32742	32711	32793	35070	28395	32843	
1337	0	33017	32646	32646	32634	35071	28395	32845	
1338	0	33388	32691	32643	32657	35058	28371	32853	
1339	0	32731	32727	32668	32731	35075	28393	32828	
1340	0	32942	32820	32471	32653	35068	28391	32848	
1341	0	32465	32739	32657	32813	35035	28397	32851	
1342	0	32114	32687	32850	32831	35035	28415	32871	
1343	0	32649	32666	32804	32729	35030	28408	32887	
1344	0	33350	32554	32832	32799	35045	28380	32881	
1345	0	32381	32739	32338	32775	35035	28389	32870	
1346	0	32545	32711	32576	32638	35041	28384	32859	
1347	0	32938	32647	32561	32816	35047	28404	32851	
1348	0	32920	32787	32574	32744	35027	28426	32832	
1349	0	33134	32743	32749	32726	35002	28358	32822	
1350	0	32324	32617	32605	32825	35066	28387	32821	
1351	0	32952	32667	32443	32808	35123	28418	32818	
1352	0	32586	32805	32644	32814	35094	28434	32775	
1353	0	32701	32659	32490	32635	35049	28412	32795	
1354	0	32749	32754	32601	32620	35083	28403	32802	
1355	0	32402	32598	32547	32771	35075	28407	32794	
1356	0	32706	32758	32523	32795	35035	28386	32800	
1357	0	32794	32613	32522	32670	35120	28376	32827	
1358	0	33008	32696	32613	32748	35069	28405	32846	
1359	0	32848	32738	32423	32699	35023	28360	32887	
1360	0	32748	32687	32735	32707	35049	28383	32862	
1361	0	32820	32561	32519	32852	35039	28397	32876	
1362	0	32104	32757	32543	32851	34985	28397	32903	
1363	0	32492	32527	32583	32791	35047	28412	32909	
1364	0	32331	32720	32663	32803	34964	28389	32866	
1365	0	32998	32799	32613	32681	35023	28352	32873	
1366	0	32728	32749	32578	32856	35002	28374	32895	
1367	0	32536	32561	32717	32743	34962	28370	32863	
1368	0	33004	32749	32685	32846	35062	28374	32880	
1369	0	32652	32654	32363	32769	35039	28426	32860	
1370	0	32856	32703	32633	32761	34973	28358	32843	
1371	0	32716	32663	32588	32690	35089	28346	32861	
1372	0	32696	32775	32567	32775	35042	28376	32847	
1373	0	32820	32550	32787	32766	35019	28342	32856	
1374	0	32960	32775	32501	32799	35129	28370	32850	
1375	0	32834	32589	32435	32821	35052	28402	32818	
1376	0	32521	32512	32438	32714	35020	28357	32815	
1377	0	32728	32711	32740	32869	35117	28387	32800	
1378	0	32768	32434	32492	32747	35035	28414	32760	
1379	0	32844	32836	32671	32750	35005	28406	32797	
1380	0	32888	32732	32326	32837	35080	28434	32834	
1381	0	32683	32645	32498	32787	35066	28449	32850	
1382	0	32620	32725	32482	32747	35047	28410	32839	
1383	0	32494	32586	32732	32832	35124	28412	32836	
1384	0	32485	32727	32379	32793	35077	28410	32818	
1385	0	32906	32765	32495	32854	35037	28382	32815	
1386	0	33021	32758	32621	32684	35151	28437	32817	
1387	0	32712	32771	32835	32730	35101	28466	32808	
1388	0	32347	32705	32614	32701	35111	28493	32775	
1389	0	32832	32523	32608	32687	35079	28455	32775	
1390	0	32544	32711	32635	32661	35064	28449	32806	
1391	0	32846	32558	32844	32889	35109	28411	32775	
1392	0	33128	32769	32578	32727	35113	28397	32786	
1393	0	32551	32550	32506	32811	35068	28396	32788	
1394	0	32891	32755	32661	32647	35090	28423	32799	
1395	0	32711	32569	32532	32621	35096	28435	32807	
1396	0	32724	32708	32736	32717	35092	28422	32797	
1397	0	32711	32677	32775	32836	35085	28430	32798	
1398	0	32403	32596	32697	32751	35128	28445	32825	
1399	0	32846	32557	32685	32835	35147	28453	32812	
1400	0	32378	32500	32427	32772	35061	28444	32807	
1401	0	32544	32758	32485	32743	35133	28412	32825	
1402	0	33056	32588	32642	32695	35064	28415	32812	
1403	0	32647	32647	32643	32628	35096	28393	32826	
1404	0	33029	32666	32879	32775	35109	28447	32813	
1405	0	32584	32672	32674	32744	35095	28453	32794	
1406	0	32763	32705	32462	32642	35126	28451	32814	
1407	0	32979	32464	32647	32775	35111	28473	32789	
1408	0	32754	32931	32635	32583	35064	28452	32775	
1409	0	32802	32807	32654	32991	35105	28435	32775	
1410	0	32282	32758	32565	32914	35088	28441	32771	
1411	0	33192	32761	32460	32711	35067	28446	32789	
1412	0	32594	32696	32699	32594	35117	28453	32799	
1413	0	32576	32632	32767	32718	35117	28425	32801	
1414	0	32454	32717	32466	32799	35120	28427	32775	
1415	0	32532	32726	32605	32749	35113	28465	32758	
1416	0	32866	32552	32448	32647	35088	28427	32766	
1417	0	32668	32707	32410	32745	35137	28391	32800	
1418	0	32874	32746	32647	32775	35105	28407	32767	
1419	0	32700	32562	32621	32672	35088	28379	32811	
1420	0	32694	32813	32606	32653	35117	28388	32825	
1421	0	32828	32836	32615	32775	35083	28402	32850	
1422	0	32444	32751	32424	32790	35077	28396	32854	
1423	0	32606	32544	32511	32626	35079	28418	32856	
1424	0	32315	32751	32758	32762	35047	28411	32859	
1425	0	33176	32569	33031	32646	35065	28416	32866	
1426	0	32779	32823	32764	32839	35057	28455	32866	
1427	0	32626	32670	32505	32775	34999	28454	32866	
1428	0	32329	32532	32515	32674	35032	28431	32891	
1429	0	32628	32495	32496	32806	35074	28443	32873	
1430	0	32501	32537	32431	32815	35067	28423	32868	
1431	0	32508	32678	32437	32771	35085	28416	32883	
1432	0	32642	32571	32623	32745	35101	28440	32855	
1433	0	32767	32743	32835	32827	35054	28410	32855	
1434	0	32613	32634	32429	32724	35128	28382	32851	
1435	0	32912	32802	32775	32823	35045	28349	32833	
1436	0	33261	32647	32701	32858	35107	28326	32830	
1437	0	32800	32481	32400	32979	35141	28372	32804	
1438	0	32758	32705	32932	32534	35104	28370	32808	
1439	0	32775	32775	32738	32823	35136	28335	32810	
1440	0	32800	32839	32760	32801	35111	28370	32797	
1441	0	33027	32647	32654	32759	35061	28355	32793	
1442	0	32935	32752	32647	32772	35104	28359	32775	
1443	0	32573	32463	32716	32726	35092	28416	32772	
1444	0	32966	32611	32578	32731	35070	28416	32775	
1445	0	32748	32747	32699	32803	35108	28418	32765	
1446	0	32623	32726	32547	32789	35159	28449	32787	
1447	0	32696	32722	32747	32729	35098	28455	32813	
1448	0	33426	32549	32311	32663	35131	28450	32836	
1449	0	32876	32711	32485	32792	35131	28483	32864	
1450	0	33213	32576	32530	32771	35143	28524	32854	
1451	0	32767	32535	32567	32745	35116	28519	32859	
1452	0	32616	32807	32412	32817	35111	28481	32856	
1453	0	32654	32722	32845	32775	35122	28447	32862	
1454	0	32733	32623	32986	32691	35109	28440	32861	
1455	0	32256	32711	32483	32647	35131	28468	32871	
1456	0	32528	32628	32514	32663	35143	28475	32875	
1457	0	32881	32603	32829	32692	35122	28471	32885	
1458	0	32356	32711	32560	32647	35069	28438	32864	
1459	0	32936	32726	32829	32710	35122	28407	32868	
1460	0	33141	32894	32593	32839	35191	28475	32884	
1461	0	33099	32663	32803	32615	35143	28486	32891	
1462	0	32254	32711	32769	32631	35153	28494	32859	
1463	0	32355	32694	32945	32800	35136	28472	32875	
1464	0	32754	32771	32562	32739	35181	28461	32882	
1465	0	32493	32775	32599	32633	35142	28436	32887	
1466	0	32870	32745	32647	32805	35116	28480	32878	
1467	0	32798	32705	33014	32719	35170	28460	32887	
1468	0	32893	32596	32617	32833	35109	28454	32887	
1469	0	32277	32606	32989	32738	35118	28444	32892	
1470	0	32738	32767	32513	32818	35122	28459	32884	
1471	0	32576	32503	32716	32769	35079	28473	32870	
1472	0	32585	32599	32752	32799	35057	28438	32870	
1473	0	32838	32674	32746	32694	35047	28393	32856	
1474	0	32629	32711	32864	32749	35047	28366	32865	
1475	0	32793	32643	32577	32719	35057	28412	32861	
1476	0	32589	32761	32192	32800	35062	28418	32843	
1477	0	32846	32711	32698	32706	35099	28416	32839	
1478	0	32775	32609	32680	32703	35052	28408	32807	
1479	0	33353	32769	32674	32772	35049	28372	32775	
1480	0	33001	32655	32539	32786	35072	28349	32805	
1481	0	32374	32699	32647	32832	35078	28391	32775	
1482	0	32643	32766	32515	32800	35083	28419	32788	
1483	0	32541	32665	32293	32764	35073	28399	32789	
1484	0	32900	32569	32647	32658	35064	28392	32802	
1485	0	32773	32663	32478	32742	35100	28378	32809	
1486	0	33169	32748	32666	32850	35101	28384	32805	
1487	0	33108	32671	32723	32773	35041	28391	32802	
1488	0	32740	32809	32855	32758	35047	28354	32839	
1489	0	32680	32655	32623	32764	35074	28351	32850	
1490	0	32854	32839	32681	32688	35063	28378	32866	
1491	0	32754	32735	32399	32815	35035	28410	32885	
1492	0	32724	32691	32913	32723	35020	28396	32894	
1493	0	33096	32671	32545	32655	35032	28391	32891	
1494	0	32954	32699	32553	32793	35028	28378	32925	
1495	0	32576	32646	32566	32862	35015	28399	32916	
1496	0	32552	32582	32543	32916	35025	28409	32899	
1497	0	32824	32684	32553	32652	35015	28395	32926	
1498	0	32847	32601	32811	32751	35015	28418	32902	
1499	0	32800	32553	32432	32615	35043	28402	32921	
1500	0	32665	32763	32893	32803	35063	28392	32903	
1501	0	32888	32563	32523	32816	35068	28367	32877	
1502	0	33066	32669	32475	32654	35045	28354	32863	
1503	0	32621	32803	32748	32655	34989	28342	32850	
1504	0	32550	32775	32845	32681	35010	28328	32850	
1505	0	33087	32598	32728	32815	34987	28354	32845	
1506	0	32504	32681	32553	32742	35033	28374	32827	
1507	0	32932	32800	32667	32710	34993	28372	32826	
1508	0	32708	32613	32792	32621	35030	28359	32845	
1509	0	33056	32735	32399	32703	35015	28375	32834	
1510	0	32840	32694	32489	32694	34998	28390	32832	
1511	0	32962	32603	32721	32807	35042	28394	32827	
1512	0	33011	32800	32519	32768	35063	28364	32834	
1513	0	32348	32674	32629	32808	35034	28375	32845	
1514	0	33087	32731	32482	32769	35063	28391	32854	
1515	0	32540	32687	33001	32775	35074	28379	32842	
1516	0	32738	32538	32647	32819	35041	28408	32840	
1517	0	32584	32628	32583	32786	35079	28423	32845	
1518	0	33024	32509	32550	32679	35053	28422	32839	
1519	0	32557	32745	32498	32811	35067	28415	32820	
1520	0	33036	32587	32851	32735	35047	28386	32810	
1521	0	32456	32578	32608	32771	35034	28388	32800	
1522	0	32640	32718	32624	32814	35035	28382	32821	
1523	0	32979	32775	32560	32706	35020	28402	32821	
1524	0	32792	32730	32555	32639	35062	28391	32806	
1525	0	32294	32711	32907	32790	35037	28370	32791	
1526	0	32873	32749	32695	32658	35015	28382	32790	
1527	0	32622	32598	32750	32842	35034	28396	32811	
1528	0	32421	32706	32422	32696	35015	28413	32839	
1529	0	32861	32806	32850	32817	35023	28400	32839	
1530	0	32445	32647	32790	32762	35007	28394	32810	
1531	0	32652	32612	32806	32691	35006	28361	32838	
1532	0	33086	32690	32576	32644	35032	28359	32855	
1533	0	32850	32647	32711	32775	35010	28359	32883	
1534	0	32550	32711	32654	32745	35024	28391	32872	
1535	0	33163	32775	32698	32805	35023	28417	32871	
1536	0	32984	32715	32569	32803	35019	28438	32879	
1537	0	32552	32724	32524	32743	35021	28411	32895	
1538	0	32594	32559	32443	32839	35019	28381	32894	
1539	0	32684	32711	32746	32726	34997	28365	32881	
1540	0	32893	32767	32651	32691	34983	28368	32873	
1541	0	32574	32643	32743	32688	35030	28382	32855	
1542	0	32655	32619	32602	32796	35013	28385	32839	
1543	0	33000	32707	32360	32775	34998	28385	32835	
1544	0	33010	32702	32659	32738	34993	28386	32835	
1545	0	32940	32798	32743	32682	35001	28381	32850	
1546	0	32733	32551	32617	32767	34999	28370	32839	
1547	0	32720	32690	32448	32583	35013	28365	32833	
1548	0	32878	32536	32709	32735	34979	28368	32831	
1549	0	32512	32677	32695	32782	35023	28343	32833	
1550	0	32672	32719	32621	32685	35013	28345	32859	
1551	0	32896	32625	32654	32771	35010	28370	32843	
1552	0	32548	32799	32775	32877	35013	28371	32850	
1553	0	33120	32552	32749	32657	34995	28361	32829	
1554	0	33058	32577	32503	32759	35008	28359	32850	
1555	0	32522	32742	32553	32621	34989	28373	32844	
1556	0	32782	32531	32466	32884	35003	28379	32854	
1557	0	32496	32727	32618	32775	34987	28356	32854	
1558	0	32621	32562	32707	32682	34996	28348	32839	
1559	0	32519	32691	32609	32678	34985	28337	32836	
1560	0	32973	32788	32703	32814	35008	28356	32827	
1561	0	33024	32611	32833	32695	35006	28366	32839	
1562	0	33346	32710	32506	32769	35005	28393	32854	
1563	0	32558	32756	32723	32775	35026	28375	32849	
1564	0	32775	32761	32736	32800	34998	28346	32864	
1565	0	32544	32752	32498	32775	35001	28351	32857	
1566	0	32609	32661	32387	32602	35000	28333	32870	
1567	0	32814	32791	32225	32757	34993	28343	32859	
1568	0	32910	32726	32848	32805	34996	28378	32865	
1569	0	32790	32747	32464	32775	35015	28363	32846	
1570	0	32336	32852	32445	32839	35003	28376	32850	
1571	0	32901	32665	32563	32608	35015	28367	32854	
1572	0	32613	32547	32736	32801	34969	28367	32847	
1573	0	33402	32753	32613	32787	34981	28397	32855	
1574	0	32886	32720	32884	32703	35000	28405	32858	
1575	0	32593	32754	32841	32726	34987	28363	32870	
1576	0	32488	32664	32297	32624	35011	28381	32859	
1577	0	32656	32692	32607	32771	35023	28374	32858	
1578	0	32456	32439	32542	32663	35010	28358	32872	
1579	0	33038	32775	32869	32738	35031	28381	32870	
1580	0	33113	32671	32610	32690	35034	28379	32865	
1581	0	32472	32765	32883	32868	34998	28397	32867	
1582	0	32093	32819	32889	32967	35015	28388	32850	
1583	0	32630	32839	32903	32658	35005	28383	32842	
1584	0	32692	32733	32623	32718	35021	28381	32839	
1585	0	32468	32665	32706	32679	35016	28347	32833	
1586	0	32449	32738	32788	32749	35009	28373	32851	
1587	0	33136	32683	32542	32763	34998	28362	32818	
1588	0	32295	32683	32516	32647	35026	28369	32831	
1589	0	33313	32751	32483	32642	34981	28361	32825	
1590	0	32613	32728	32549	32775	34993	28333	32845	
1591	0	32534	32557	32620	32825	34981	28336	32854	
1592	0	32868	32737	32477	32694	34971	28325	32855	
1593	0	32954	32839	33003	32775	34982	28323	32851	
1594	0	32620	32681	32597	32686	34962	28343	32849	
1595	0	32744	32621	32568	32815	34983	28330	32873	
1596	0	32524	32647	32615	32766	34966	28340	32867	
1597	0	32712	32710	32626	32749	34977	28349	32846	
1598	0	32775	32595	32710	32665	34978	28354	32867	
1599	0	33240	32847	32473	32762	34991	28356	32876	
1600	0	32672	32797	32485	32695	34984	28369	32858	
1601	0	32704	32710	32711	32898	34999	28389	32854	
1602	0	32533	32645	32578	32795	35023	28414	32854	
1603	0	32577	32754	32470	32800	35010	28385	32857	
1604	0	32748	32726	32651	32638	34997	28411	32838	
1605	0	32460	32697	32487	32586	35036	28397	32838	
1606	0	32802	32654	32535	32728	35011	28379	32839	
1607	0	32884	32842	32666	32850	35047	28398	32822	
1608	0	32443	32662	32791	32720	35041	28405	32819	
1609	0	32920	32683	32670	32728	35033	28403	32839	
1610	0	32540	32581	32420	32769	35060	28399	32819	
1611	0	32773	32645	32670	32771	35068	28396	32829	
1612	0	32908	32646	32967	32755	35054	28387	32822	
1613	0	33072	32802	32455	32743	35028	28368	32831	
1614	0	32692	32679	32775	32775	35031	28383	32862	
1615	0	32398	32690	32731	32740	35040	28397	32866	
1616	0	32556	32750	32655	32663	35024	28400	32841	
1617	0	32583	32758	32582	32749	35011	28375	32870	
1618	0	32799	32479	32612	32749	35014	28375	32885	
1619	0	32556	32582	32836	32627	35002	28372	32860	
1620	0	32694	32743	32515	32763	35022	28389	32846	
1621	0	32421	32647	32543	32676	35031	28378	32835	
1622	0	32903	32817	32957	32615	35037	28387	32855	
1623	0	32605	32548	32331	32741	35035	28400	32839	
1624	0	32658	32679	32660	32738	35055	28414	32839	
1625	0	32924	32644	32391	32663	35067	28415	32838	
1626	0	32710	32775	32709	32775	35060	28428	32835	
1627	0	32528	32714	32391	32738	35045	28431	32850	
1628	0	32960	32598	32583	32806	35067	28420	32844	
1629	0	32792	32658	32476	32826	35047	28405	32841	
1630	0	33238	32746	32564	32791	35045	28405	32850	
1631	0	32472	32601	32547	32771	35052	28412	32820	
1632	0	32520	32741	32598	32791	35060	28385	32835	
1633	0	32864	32690	32991	32721	35079	28402	32839	
1634	0	33168	32804	32862	32871	35065	28394	32839	
1635	0	32969	32602	32896	32763	35038	28383	32845	
1636	0	32787	32802	32705	32801	35057	28409	32831	
1637	0	33041	32720	32669	32805	35023	28383	32815	
1638	0	32506	32810	32448	32671	35040	28411	32808	
1639	0	33040	32763	32613	32758	35028	28391	32839	
1640	0	32880	32611	32593	32775	35065	28391	32819	
1641	0	32650	32711	32598	32694	35053	28372	32832	
1642	0	32837	32773	32579	32599	35035	28382	32823	
1643	0	32733	32536	32536	32790	35040	28359	32845	
1644	0	32946	32813	32421	32705	35044	28390	32834	
1645	0	32742	32571	32550	32809	35047	28391	32833	
1646	0	32714	32723	32609	32670	35043	28400	32838	
1647	0	33056	32807	32786	32766	35053	28382	32854	
1648	0	32524	32746	32519	32670	35049	28387	32855	
1649	0	32744	32615	32515	32775	35055	28393	32854	
1650	0	32706	32686	32693	32658	35067	28400	32843	
1651	0	32632	32683	32707	32708	35059	28437	32859	
1652	0	32680	32808	32647	32824	35073	28428	32890	
1653	0	33238	32675	32503	32813	35059	28443	32868	
1654	0	32359	32647	32491	32740	35003	28406	32848	
1655	0	33266	32546	32566	32775	35033	28432	32842	
1656	0	32751	32644	32766	32682	35033	28455	32836	
1657	0	32532	32767	32830	32802	35006	28423	32833	
1658	0	32794	32725	32515	32758	35009	28393	32826	
1659	0	32756	32549	32669	32672	35021	28366	32804	
1660	0	32850	32953	32711	32683	35023	28356	32816	
1661	0	33120	32583	33020	32687	35003	28360	32819	
1662	0	33116	32671	32515	32646	35049	28363	32850	
1663	0	33150	32596	32405	32699	35044	28370	32858	
1664	0	33031	32551	32535	32528	35063	28379	32866	
1665	0	32646	32721	32387	32775	35049	28378	32859	
1666	0	32514	32880	32669	33099	35068	28380	32854	
1667	0	32802	32510	32515	32477	35055	28393	32856	
1668	0	32873	33199	32715	32704	35068	28404	32845	
1669	0	33035	32678	32607	32585	35111	28404	32868	
1670	0	32576	32599	32602	32807	35111	28413	32851	
1671	0	33072	32659	32482	32699	35113	28430	32839	
1672	0	32688	32820	32749	32816	35097	28452	32823	
1673	0	32743	32568	32706	32755	35101	28453	32802	
1674	0	32734	32425	32496	32847	35117	28404	32832	
1675	0	32605	32731	32470	32699	35067	28375	32820	
1676	0	32772	32739	32702	32784	35054	28366	32835	
1677	0	32800	32692	32314	32747	35052	28381	32848	
1678	0	32749	32775	32544	32744	35062	28418	32838	
1679	0	32626	32613	32527	32743	35066	28416	32860	
1680	0	32624	32567	32511	32775	35026	28398	32846	
1681	0	33029	33134	32764	32794	35037	28400	32859	
1682	0	32694	32698	32366	32659	35015	28415	32849	
1683	0	32474	32864	32544	32727	35025	28424	32859	
1684	0	32508	32526	32928	32791	34979	28441	32861	
1685	0	32597	32727	32512	32747	35008	28429	32869	
1686	0	32832	32771	32536	32799	35008	28404	32887	
1687	0	32784	32647	32827	32711	35003	28405	32880	
1688	0	32616	32583	32625	32847	35041	28404	32867	
1689	0	32725	32717	32659	32742	35027	28397	32883	
1690	0	32612	32642	32835	32729	35029	28373	32899	
1691	0	32843	32551	32554	32682	35043	28376	32894	
1692	0	32611	32920	32565	32716	35047	28379	32903	
1693	0	32436	32571	32827	32791	35031	28391	32895	
1694	0	32562	32692	32677	32626	35063	28375	32888	
1695	0	32454	32609	32580	32762	35033	28404	32875	
1696	0	32326	32790	32736	32688	35076	28426	32879	
1697	0	32864	32726	32562	32854	35065	28413	32859	
1698	0	32622	32736	32760	32787	35060	28391	32856	
1699	0	32576	32615	32706	32735	35027	28390	32818	
1700	0	32268	32677	32668	32647	35015	28378	32799	
1701	0	32764	32687	32450	32773	35002	28379	32813	
1702	0	33173	32745	32551	32812	35034	28373	32828	
1703	0	32613	32647	32620	32730	35008	28365	32822	
1704	0	32592	32810	32573	32658	35015	28368	32818	
1705	0	32841	32607	32601	32725	35007	28390	32814	
1706	0	32664	32718	32509	32811	35000	28391	32827	
1707	0	32830	32605	32207	32718	35013	28389	32819	
1708	0	33634	32763	33090	32762	35011	28356	32827	
1709	0	32669	32855	32945	32769	35023	28332	32806	
1710	0	32384	32514	32677	32743	35013	28322	32818	
1711	0	33194	32754	32543	32775	34994	28344	32817	
1712	0	32834	32571	32656	32610	34999	28380	32811	
1713	0	32354	32711	32626	32609	34997	28359	32835	
1714	0	32175	32871	32695	32843	35005	28372	32830	
1715	0	32459	32674	32784	32742	35015	28361	32848	
1716	0	32890	32599	32638	32614	34979	28346	32861	
1717	0	32694	32754	32851	32774	34983	28325	32882	
1718	0	32556	32479	32583	32769	34984	28350	32869	
1719	0	32792	32658	32815	32680	34988	28389	32883	
1720	0	32685	32740	32786	32741	35001	28403	32899	
1721	0	33316	32727	32858	32755	34991	28430	32877	
1722	0	32910	32647	32344	32814	34993	28390	32900	
1723	0	32726	32583	32850	32635	35015	28368	32858	
1724	0	33272	32596	32297	32707	34951	28365	32854	
1725	0	33410	32686	33017	32659	34979	28342	32847	
1726	0	32902	32739	32550	32679	34989	28351	32847	
1727	0	33472	32502	32743	32799	34997	28344	32839	
1728	0	32672	32559	32703	32426	35009	28335	32835	
1729	0	32769	32646	32516	32689	34995	28352	32811	
1730	0	32557	32660	32365	32720	34979	28359	32834	
1731	0	33018	32735	32635	32805	34991	28354	32831	
1732	0	32148	32794	32658	32728	35005	28352	32850	
1733	0	32632	32639	32706	32756	35000	28311	32858	
1734	0	32519	32495	32728	32695	35003	28291	32859	
1735	0	32678	32635	33020	32669	35000	28302	32852	
1736	0	32740	32523	32734	32751	34984	28323	32850	
1737	0	32744	32775	32788	32679	34975	28333	32842	
1738	0	33049	32647	32423	32775	34983	28347	32851	
1739	0	32751	32414	32396	32751	35006	28371	32862	
1740	0	32616	33107	32676	32836	34989	28382	32858	
1741	0	33019	32560	32583	32559	35026	28429	32844	
1742	0	32644	32507	32698	32658	35009	28449	32870	
1743	0	33250	32674	32854	32679	35026	28460	32863	
1744	0	32653	32724	32662	32955	35005	28443	32824	
1745	0	32468	32903	32582	32966	35026	28430	32809	
1746	0	33192	32708	32583	32547	35017	28401	32836	
1747	0	32754	32606	32615	32565	35015	28385	32832	
1748	0	32786	32659	32699	32749	35013	28396	32851	
1749	0	32762	32658	32806	32896	35015	28386	32858	
1750	0	32596	32731	32579	32763	34992	28335	32838	
1751	0	32188	32795	32687	32737	35019	28345	32803	
1752	0	32726	32722	32685	32786	34985	28304	32818	
1753	0	32244	32726	32700	32619	34975	28295	32839	
1754	0	32474	32686	32192	32598	34981	28314	32836	
1755	0	32888	32749	32793	32945	34980	28383	32839	
1756	0	32594	32754	32486	32446	35032	28390	32839	
1757	0	32597	32748	32742	32742	34957	28347	32858	
1758	0	32466	32530	32744	32743	34967	28327	32839	
1759	0	32898	32690	32563	32746	34995	28319	32827	
1760	0	32624	32707	32750	32710	35008	28356	32822	
1761	0	32792	32526	32599	32741	34992	28386	32816	
1762	0	33083	32876	32670	32707	34971	28433	32802	
1763	0	32624	32858	32633	32679	34971	28427	32825	
1764	0	33344	32574	32571	32725	34997	28411	32825	
1765	0	32932	32568	32362	32717	35010	28382	32829	
1766	0	32738	32775	32682	32689	35023	28355	32826	
1767	0	32914	32689	32432	32862	35037	28345	32802	
1768	0	32412	32673	32723	32683	34985	28357	32788	
1769	0	32310	32751	32683	32809	35031	28377	32775	
1770	0	32684	32519	32437	32694	35047	28388	32763	
1771	0	32365	32673	32560	32790	35015	28390	32787	
1772	0	32819	32617	32671	32697	35020	28387	32775	
1773	0	33283	32845	32999	32851	35019	28363	32784	
1774	0	32660	33117	32604	32774	34989	28366	32775	
1775	0	32984	32706	32377	32766	35025	28378	32790	
1776	0	32923	32727	32578	32642	35014	28399	32775	
1777	0	32775	32775	32621	32615	35005	28391	32769	
1778	0	32713	32694	32531	32757	35030	28383	32775	
1779	0	32797	32800	32397	32793	34963	28385	32775	
1780	0	33428	32855	32540	32790	35021	28389	32802	
1781	0	32306	32642	32718	32731	35005	28380	32800	
1782	0	32826	32658	33215	32719	35013	28368	32803	
1783	0	32646	32550	32566	32749	35022	28359	32811	
1784	0	32668	32677	32655	32790	35021	28382	32821	
1785	0	32460	32551	32621	32733	35015	28382	32815	
1786	0	33083	32668	32494	32828	35042	28399	32826	
1787	0	32690	32656	32874	32812	35002	28391	32836	
1788	0	32621	32641	32448	32784	35031	28397	32835	
1789	0	32988	32731	32438	32769	35031	28393	32823	
1790	0	32613	32739	32663	32745	35000	28405	32819	
1791	0	32666	32701	32620	32631	34969	28395	32835	
1792	0	32835	32763	32736	32839	34978	28416	32839	
1793	0	32787	32766	32723	32785	34995	28405	32854	
1794	0	32921	32752	32631	32647	34986	28401	32837	
1795	0	32744	32668	32535	32645	34976	28393	32817	
1796	0	32836	32670	32727	32756	34977	28363	32834	
1797	0	32922	32762	32825	32724	34992	28351	32810	
1798	0	32652	32539	32816	32703	34989	28327	32808	
1799	0	32998	32575	32601	32678	34988	28346	32775	
1800	0	32692	32698	32812	32727	34980	28365	32769	
1801	0	32480	32749	32574	32615	34998	28363	32791	
1802	0	33076	32747	32639	32819	34983	28375	32791	
1803	0	32502	32666	32923	32685	34997	28366	32788	
1804	0	32846	32720	32359	32722	35015	28381	32811	
1805	0	32848	32694	32578	32859	35013	28359	32812	
1806	0	32906	32627	32578	32830	34975	28343	32807	
1807	0	33076	32759	32567	32806	34990	28335	32806	
1808	0	32832	32617	32662	32747	34950	28349	32806	
1809	0	32738	32762	32629	32811	34967	28335	32815	
1810	0	32512	32653	32505	32848	34978	28325	32823	
1811	0	32892	32603	32831	32775	34981	28303	32811	
1812	0	32676	32705	32992	32719	34993	28303	32813	
1813	0	32625	32694	32519	32647	34967	28295	32803	
1814	0	33033	32667	32967	32759	34976	28308	32818	
1815	0	32698	32765	32530	32814	34941	28309	32815	
1816	0	32804	32806	32468	32666	34950	28301	32813	
1817	0	32707	32773	32346	32611	34957	28330	32810	
1818	0	32664	32615	32672	32684	34967	28323	32822	
1819	0	33131	33095	32619	32702	34951	28343	32818	
1820	0	32952	32371	32569	32656	34930	28325	32839	
1821	0	32434	32804	32723	32919	34928	28327	32839	
1822	0	32964	32595	32679	32642	34949	28317	32845	
1823	0	32756	32613	32606	32767	34965	28331	32863	
1824	0	32391	32647	32615	32575	34935	28360	32876	
1825	0	33072	32515	32665	32578	34950	28352	32886	
1826	0	32602	32540	32683	32851	34959	28377	32866	
1827	0	33093	32807	32586	32861	34967	28396	32850	
1828	0	32212	32621	32741	32613	34969	28402	32852	
1829	0	32680	32751	32367	33246	34979	28364	32867	
1830	0	32952	32587	32327	32745	34941	28330	32839	
1831	0	32496	32710	32423	32581	34959	28302	32823	
1832	0	32522	32767	32506	32632	34941	28292	32798	
1833	0	32710	32736	32475	32818	34983	28299	32805	
1834	0	32775	32835	32534	32995	34975	28301	32812	
1835	0	32603	32498	32517	33003	34970	28332	32807	
1836	0	32786	32633	32416	33573	34973	28342	32775	
1837	0	32756	33383	32592	32784	35009	28359	32762	
1838	0	32675	32607	32757	32775	35015	28376	32747	
1839	0	32800	32446	32575	32506	34992	28366	32750	
1840	0	32954	32603	32768	32660	35015	28404	32743	
1841	0	32755	32652	32704	32617	35015	28393	32764	
1842	0	32326	32679	32335	32773	35002	28390	32775	
1843	0	32626	32767	32642	32715	35043	28386	32745	
1844	0	32624	32501	32488	32806	35014	28365	32758	
1845	0	32903	32630	32419	32706	35017	28354	32754	
1846	0	32748	32708	32923	32765	35027	28379	32748	
1847	0	32586	32677	32438	32668	35051	28388	32738	
1848	0	32656	32581	32568	32490	35028	28385	32738	
1849	0	32858	32769	32808	32769	35074	28375	32745	
1850	0	33401	32756	32728	32694	35055	28371	32724	
1851	0	32583	32742	32454	32747	35039	28403	32701	
1852	0	32734	32635	32674	32760	35076	28415	32714	
1853	0	32683	32767	32519	32823	35066	28394	32694	
1854	0	32792	32955	32694	32829	35099	28422	32685	
1855	0	33138	32753	32560	32671	35047	28445	32710	
1856	0	33080	32704	32727	32775	35079	28446	32731	
1857	0	32466	32609	32274	32619	35052	28377	32771	
1858	0	32844	32607	32562	32839	35021	28359	32795	
1859	0	32786	32639	32978	32678	35031	28358	32784	
1860	0	32426	32727	32535	32678	35026	28379	32771	
1861	0	32238	32683	32578	32688	35018	28427	32799	
1862	0	33126	32773	32571	32747	35035	28443	32817	
1863	0	32452	32551	32370	32733	34995	28423	32820	
1864	0	32846	32698	32587	32658	35001	28393	32816	
1865	0	32628	32734	32799	32754	35000	28392	32806	
1866	0	32903	32948	32616	32637	34986	28354	32825	
1867	0	32712	32554	32343	32622	34979	28342	32843	
1868	0	32994	32562	32743	32667	34975	28368	32822	
1869	0	32679	32732	32592	32834	34982	28379	32823	
1870	0	32727	32570	32365	32604	34965	28409	32832	
1871	0	32598	32671	32775	32692	35006	28417	32830	
1872	0	32630	32619	32549	32656	34966	28423	32839	
1873	0	32864	32775	32565	32681	34974	28402	32850	
1874	0	32876	32665	32638	32665	35019	28391	32850	
1875	0	33590	32517	32440	32860	35014	28372	32857	
1876	0	32512	32704	32636	32695	35011	28365	32827	
1877	0	33069	32639	32396	32737	34995	28371	32839	
1878	0	32538	32802	33053	32814	34995	28368	32834	
1879	0	32854	32709	32620	32831	34998	28373	32847	
1880	0	32654	32775	32662	32825	35011	28387	32859	
1881	0	32888	32622	32929	32703	35040	28374	32858	
1882	0	32930	32897	32455	32908	35016	28374	32848	
1883	0	32502	32656	32438	32547	34983	28355	32887	
1884	0	32896	32719	32660	32813	35012	28344	32871	
1885	0	32656	32633	32617	32667	35014	28358	32866	
1886	0	32634	32721	32583	32683	34998	28359	32847	
1887	0	33028	32730	32595	32804	35000	28363	32834	
1888	0	33287	32711	32476	32607	35010	28359	32847	
1889	0	32643	32752	32602	32966	34962	28374	32852	
1890	0	32970	32618	32715	32556	34983	28375	32867	
1891	0	32600	32692	32809	31297	34985	28410	32859	
1892	0	32866	32624	32653	32926	35001	28400	32819	
1893	0	32599	32691	32598	32630	35011	28401	32811	
1894	0	32676	32630	32791	32658	34991	28356	32807	
1895	0	32785	32521	32775	32750	35023	28365	32775	
1896	0	32694	32567	32409	32647	35037	28347	32775	
1897	0	32299	32675	32762	32847	35015	28358	32786	
1898	0	32501	32831	32816	32927	35015	28363	32802	
1899	0	33065	32671	32922	32741	35012	28374	32788	
1900	0	32622	32683	32442	32674	34975	28361	32804	
1901	0	32556	32769	32417	32722	35015	28365	32814	
1902	0	33104	32735	32459	32825	35031	28361	32802	
1903	0	32780	32831	32658	32669	35021	28343	32810	
1904	0	32642	32767	32507	32726	35000	28330	32818	
1905	0	32936	32744	32587	32835	34989	28307	32837	
1906	0	32858	32730	32894	32629	34975	28295	32847	
1907	0	32864	32731	32629	32749	34951	28302	32848	
1908	0	32858	32759	32569	32695	34937	28318	32848	
1909	0	32717	32548	32621	32672	34943	28342	32845	
1910	0	33534	32799	32615	32688	34962	28352	32852	
1911	0	32688	32741	32839	32775	34948	28339	32850	
1912	0	32680	32694	32463	32766	34930	28364	32851	
1913	0	32636	32748	32551	32801	34944	28354	32827	
1914	0	32745	32647	32526	32617	34961	28346	32829	
1915	0	32868	32677	32487	32688	34951	28359	32818	
1916	0	33285	32689	32408	32773	34968	28383	32809	
1917	0	32524	32717	32746	32769	34975	28397	32816	
1918	0	32898	32743	32694	32711	34971	28388	32802	
1919	0	32580	32769	32605	32744	34958	28367	32816	
1920	0	32837	32731	33002	32655	34973	28355	32815	
1921	0	32624	32755	32815	32708	34973	28359	32811	
1922	0	32896	32679	32462	32667	34963	28342	32813	
1923	0	32672	32716	32344	32769	34930	28308	32839	
1924	0	33035	32735	32561	32593	34956	28295	32854	
1925	0	32872	32550	32170	32758	34916	28289	32867	
1926	0	32406	32751	32397	32759	34950	28307	32858	
1927	0	32793	32719	32683	32647	34934	28317	32883	
1928	0	32635	32694	32414	32738	34866	28321	32898	
1929	0	33062	32736	32662	32551	34895	28311	32910	
1930	0	32588	32740	32619	32775	34875	28290	32911	
1931	0	32560	32569	32543	32799	34849	28285	32918	
1932	0	32359	32624	32579	32619	34857	28301	32896	
1933	0	32628	32749	32738	32796	34847	28339	32868	
1934	0	32854	32711	32583	32827	34859	28368	32846	
1935	0	33122	32799	32843	32690	34887	28388	32873	
1936	0	32480	32808	32534	32799	34885	28374	32870	
1937	0	33022	32672	32745	32763	34886	28353	32859	
1938	0	32916	32630	32896	32811	34911	28348	32860	
1939	0	32839	32874	32767	32799	34972	28322	32854	
1940	0	32453	32557	32514	32687	34943	28312	32855	
1941	0	32928	32655	32556	32639	34946	28343	32841	
1942	0	32932	32775	32576	32687	34941	28311	32849	
1943	0	32592	32608	32317	32647	34966	28345	32839	
1944	0	32930	32767	32603	32934	34983	28333	32816	
1945	0	32654	32566	32547	32308	34960	28346	32827	
1946	0	32692	32612	32445	32939	34984	28323	32799	
1947	0	32727	32884	32571	32934	34977	28322	32775	
1948	0	32760	32659	32596	32858	34968	28327	32808	
1949	0	33352	32703	32518	32799	34968	28359	32810	
1950	0	32741	32693	32279	32614	34974	28354	32804	
1951	0	33008	32726	32647	32743	34969	28351	32827	
1952	0	32726	32679	32729	32754	34987	28340	32831	
1953	0	32860	32675	32676	32737	34949	28343	32839	
1954	0	32592	32638	32708	32842	34975	28330	32860	
1955	0	32914	32572	32647	32810	34968	28337	32862	
1956	0	32825	32717	32804	31939	34995	28336	32863	
1957	0	32346	32787	32698	33756	34980	28350	32834	
1958	0	32664	32760	32508	32745	34923	28369	32850	
1959	0	33012	32738	32580	32751	34981	28391	32828	
1960	0	32920	32802	32767	32761	34967	28390	32823	
1961	0	32608	32735	32583	32832	34981	28387	32816	
1962	0	32516	32719	32766	32858	34971	28364	32826	
1963	0	32338	32683	32881	32674	34943	28370	32831	
1964	0	33205	32639	32425	32647	34959	28401	32843	
1965	0	32877	32775	32413	32731	34935	28389	32838	
1966	0	32988	32643	32752	32811	34929	28363	32854	
1967	0	32984	32742	32445	32743	34923	28351	32870	
1968	0	32910	32749	32193	32640	34902	28327	32885	
1969	0	32912	32703	32577	32672	34902	28307	32903	
1970	0	32741	32615	32639	32669	34915	28308	32902	
1971	0	32412	32654	32799	32771	34928	28329	32894	
1972	0	32482	32572	32570	32793	34915	28334	32899	
1973	0	33028	32626	32519	32672	34944	28342	32891	
1974	0	32584	32659	32681	32672	34927	28328	32892	
1975	0	33244	32724	32614	32626	34951	28327	32888	
1976	0	32536	32895	32831	32839	34939	28331	32881	
1977	0	32426	32681	32871	32850	34947	28342	32883	
1978	0	33213	32589	32573	32671	34930	28347	32891	
1979	0	32921	32631	32807	32765	34925	28357	32891	
1980	0	32866	32557	32743	32742	34902	28362	32903	
1981	0	32850	32692	32510	32637	34930	28348	32902	
1982	0	32811	32553	32342	32797	34915	28338	32903	
1983	0	32674	32691	32512	32797	34915	28357	32868	
1984	0	32541	32797	32327	32791	34899	28354	32881	
1985	0	32610	32672	32588	32695	34914	28326	32878	
1986	0	32615	32677	32535	32789	34907	28335	32879	
1987	0	32708	32569	32606	32702	34882	28345	32874	
1988	0	32466	32642	32663	32673	34883	28350	32899	
1989	0	32803	32718	32397	32711	34903	28331	32903	
1990	0	32738	32646	32751	32646	34891	28315	32917	
1991	0	32804	32738	32705	32752	34915	28290	32909	
1992	0	33078	32715	32599	32646	34864	28293	32903	
1993	0	32722	32535	32487	32868	34907	28306	32916	
1994	0	32438	32624	32327	32823	34893	28319	32903	
1995	0	32775	32515	32579	32767	34896	28326	32902	
1996	0	32816	32559	32724	32722	34900	28301	32908	
1997	0	32896	32647	32316	32702	34881	28315	32903	
1998	0	33146	32775	32715	32871	34887	28301	32928	
1999	0	32608	32766	32994	32791	34857	28311	32928	
2000	0	32800	32823	32569	32755	34865	28313	32948	
2001	0	32468	32710	32544	32711	34856	28304	32950	
2002	0	32636	32681	32407	32647	34859	28322	32935	
2003	0	32598	32775	32493	32656	34896	28295	32941	
2004	0	32713	32770	32396	32892	34907	28288	32953	
2005	0	32832	32717	32948	32745	34921	28315	32947	
2006	0	32537	32527	32455	32749	34922	28327	32943	
2007	0	33018	32754	32626	32733	34885	28314	32944	
2008	0	32304	32743	32613	32667	34907	28280	32943	
2009	0	32658	32699	32546	32775	34882	28279	32940	
2010	0	32888	32705	32639	32730	34887	28286	32930	
2011	0	32799	32697	32603	32662	34878	28303	32919	
2012	0	32819	32647	32427	32722	34860	28301	32918	
2013	0	32568	32538	32903	32699	34846	28272	32935	
2014	0	32894	32615	32848	32808	34823	28280	32941	
2015	0	32954	32698	32711	32598	34818	28256	32967	
2016	0	32760	32694	32433	32698	34823	28274	32963	
2017	0	32352	32610	32250	32810	34813	28266	32963	
2018	0	33004	32463	32513	33223	34823	28278	32954	
2019	0	32762	32686	32903	32450	34854	28316	32945	
2020	0	32685	32632	32647	32841	34896	28344	32946	
2021	0	33068	32727	32534	32743	34908	28399	32943	
2022	0	32944	32730	32635	32786	34919	28389	32940	
2023	0	33146	32710	32652	32717	34931	28374	32934	
2024	0	32738	32707	32760	32754	34933	28335	32910	
2025	0	32819	32769	32359	32826	34941	28327	32885	
2026	0	32322	32787	32583	33257	34930	28313	32866	
2027	0	32900	32679	32862	32753	34940	28303	32850	
2028	0	32769	32726	32422	32687	34942	28293	32849	
2029	0	33264	32639	32911	32864	34855	28283	32853	
2030	0	32635	32745	32522	32814	34868	28269	32850	
2031	0	32552	32653	32647	32791	34839	28274	32864	
2032	0	32976	32758	32733	32797	34880	28291	32858	
2033	0	33611	32683	32554	32730	34887	28290	32870	
2034	0	32286	32798	32452	32808	34891	28276	32890	
2035	0	33360	32669	32391	32741	34909	28276	32895	
2036	0	33154	32881	32610	32647	34921	28306	32903	
2037	0	33078	32749	32775	32729	34936	28303	32919	
2038	0	32670	32563	32895	32847	34935	28342	32939	
2039	0	32982	32676	32583	32575	34969	28361	32927	
2040	0	32302	32867	32731	32646	34950	28374	32921	
2041	0	32839	32697	32636	33060	34966	28352	32903	
2042	0	32638	32551	32478	32663	34958	28327	32890	
2043	0	32674	32598	32810	32679	34979	28306	32898	
2044	0	32757	32756	32647	32916	34951	28312	32852	
2045	0	32688	32739	32790	31704	34980	28359	32846	
2046	0	32923	32737	32604	32997	34934	28357	32856	
2047	0	32858	32674	32599	32833	34937	28337	32850	
2048	0	32632	32593	32845	32787	34915	28345	32847	
2049	0	32775	32669	32667	32748	34950	28342	32859	
2050	0	32794	32619	32605	32825	34951	28353	32824	
2051	0	32822	32683	32830	32758	34943	28367	32834	
2052	0	32676	32669	32677	32742	34924	28417	32839	
2053	0	32999	32775	32490	32745	34909	28414	32839	
2054	0	33216	32793	32610	32720	34937	28416	32847	
2055	0	32814	32667	32419	32732	34928	28398	32863	
2056	0	32538	32521	32640	32643	34914	28407	32854	
2057	0	32948	32703	32421	32635	34941	28382	32839	
2058	0	32662	32759	32762	32887	34951	28405	32839	
2059	0	32312	32703	32493	32885	34963	28381	32870	
2060	0	33204	32729	32532	32662	34992	28365	32902	
2061	0	32664	32578	32663	32717	34929	28359	32919	
2062	0	32866	32743	32699	32658	34950	28334	32935	
2063	0	32688	32709	32542	32831	34961	28340	32898	
2064	0	32763	32647	32775	32665	34963	28355	32875	
2065	0	32885	32722	32736	33127	34997	28324	32879	
2066	0	33033	32698	32589	32489	34959	28318	32884	
2067	0	32800	32834	32661	33221	34989	28317	32871	
2068	0	32601	32676	32455	32804	34985	28323	32859	
2069	0	32500	32716	32564	32749	34993	28375	32847	
2070	0	33115	32844	32575	32667	34992	28346	32860	
2071	0	32791	32566	32703	32735	34977	28366	32873	
2072	0	32391	32775	32690	32804	34983	28368	32871	
2073	0	32800	32607	32535	32758	34981	28383	32873	
2074	0	32568	32663	32695	32790	34973	28396	32895	
2075	0	32794	32682	32408	32647	34949	28376	32895	
2076	0	32824	32528	32579	32767	34938	28370	32899	
2077	0	32718	32666	33117	32674	34912	28364	32900	
2078	0	32745	32703	32642	32645	34931	28376	32895	
2079	0	32629	32678	32751	32723	34919	28408	32898	
2080	0	32868	32538	32483	32808	34910	28405	32914	
2081	0	32634	32614	32583	32731	34927	28383	32899	
2082	0	32954	32748	32491	32699	34903	28381	32888	
2083	0	32664	32710	32591	32791	34943	28381	32893	
2084	0	32856	32670	32878	32768	34934	28379	32891	
2085	0	32438	32775	32583	32716	34938	28382	32895	
2086	0	32864	32550	32446	32720	34981	28364	32918	
2087	0	32648	32715	32631	32795	34961	28356	32916	
2088	0	32817	32694	32775	32787	34967	28339	32903	
2089	0	32955	32643	32597	32767	34994	28329	32894	
2090	0	32945	32658	32537	32838	34993	28331	32903	
2091	0	32489	32700	32838	32767	34993	28340	32912	
2092	0	32592	32378	32667	32766	34966	28330	32923	
2093	0	32708	32550	32775	32773	34951	28342	32894	
2094	0	32678	32699	32534	32808	34947	28315	32899	
2095	0	32850	32575	32541	32691	34931	28295	32890	
2096	0	32215	32623	32601	32775	34934	28279	32872	
2097	0	32622	32531	32319	32794	34915	28256	32867	
2098	0	32895	32767	32934	32763	34943	28299	32845	
2099	0	32583	32722	32455	32743	34925	28310	32859	
2100	0	32684	32679	32674	32754	34902	28310	32877	
2101	0	32564	32708	32711	32903	34933	28318	32877	
2102	0	32590	32465	32629	32621	34913	28314	32862	
2103	0	32854	32566	32022	32695	34915	28314	32887	
2104	0	32757	32564	32623	32742	34932	28320	32869	
2105	0	32612	32640	32544	32662	34936	28338	32864	
2106	0	32896	32520	32623	32600	34926	28347	32869	
2107	0	32658	32578	32626	32719	34923	28366	32870	
2108	0	33052	32685	32552	32757	34918	28355	32899	
2109	0	32562	32679	32606	32760	34935	28368	32897	
2110	0	32677	32683	32666	32669	34973	28372	32892	
2111	0	32908	32733	32730	32672	34983	28351	32899	
2112	0	32736	32671	32579	32660	34925	28319	32916	
2113	0	32903	32754	32583	32576	34936	28322	32887	
2114	0	32570	32647	32352	32502	34935	28359	32882	
2115	0	32891	32639	32556	32587	34918	28351	32912	
2116	0	32794	32758	32663	32647	34973	28340	32895	
2117	0	32566	32263	32868	32745	34939	28328	32903	
2118	0	32474	32989	32568	32813	34960	28358	32903	
2119	0	32748	32545	32624	32749	34951	28343	32918	
2120	0	32344	32900	32640	32775	34950	28362	32909	
2121	0	32712	32447	32545	32647	34935	28330	32899	
2122	0	32612	32617	32518	32818	34929	28310	32889	
2123	0	32405	33131	32574	32831	34947	28303	32881	
2124	0	32938	32728	32400	32146	34923	28314	32879	
2125	0	33129	32684	32673	32736	34930	28331	32887	
2126	0	32929	32935	33065	32936	34963	28370	32863	
2127	0	32698	32705	32583	32853	34935	28367	32888	
2128	0	32956	32758	32769	32719	34969	28378	32870	
2129	0	32520	32565	32619	32804	34985	28370	32876	
2130	0	32786	32839	32743	32898	35019	28379	32866	
2131	0	33061	32663	32532	32517	34980	28359	32869	
2132	0	32615	33062	32475	32868	34987	28365	32848	
2133	0	32634	32606	32581	32790	34983	28371	32868	
2134	0	33034	32758	32812	32775	34996	28372	32850	
2135	0	32922	32647	32775	32875	34964	28382	32819	
2136	0	32738	32826	32455	32762	34957	28394	32837	
2137	0	32944	32692	32386	32819	34985	28375	32870	
2138	0	32457	32528	32545	32775	34968	28359	32867	
2139	0	32792	32633	32633	32807	34963	28325	32864	
2140	0	32796	32743	32363	32668	34950	28326	32839	
2141	0	32795	32815	32564	32647	34951	28336	32839	
2142	0	32374	32615	32796	32844	34989	28370	32847	
2143	0	32283	32738	32464	32711	34962	28396	32851	
2144	0	32573	32635	32911	32675	34963	28392	32848	
2145	0	32700	32626	32723	32698	34966	28347	32861	
2146	0	32674	32683	32758	32666	34962	28316	32862	
2147	0	32819	32644	32567	32802	34950	28303	32851	
2148	0	32971	32775	32903	32787	34944	28313	32825	
2149	0	32597	32751	32826	32726	34944	28347	32847	
2150	0	32390	32822	32549	32786	34951	28349	32873	
2151	0	33000	32715	32656	32647	34944	28365	32897	
2152	0	33086	32922	32539	32799	34928	28335	32882	
2153	0	32436	32805	32830	32791	34951	28346	32918	
2154	0	32784	32613	32691	32771	34951	28358	32921	
2155	0	33025	32755	32564	32723	34985	28369	32921	
2156	0	33058	32742	32937	32762	34934	28347	32918	
2157	0	32824	32283	32536	32667	34951	28349	32919	
2158	0	33422	32868	32509	32807	34951	28365	32903	
2159	0	32353	32617	32978	32730	34980	28379	32884	
2160	0	33265	32606	32474	32622	34963	28352	32903	
2161	0	32632	32552	32671	33205	34935	28344	32882	
2162	0	32686	32658	32557	32574	34964	28346	32852	
2163	0	32717	32658	32659	32615	34954	28352	32876	
2164	0	32924	32864	33086	32679	34962	28374	32872	
2165	0	33062	33241	32520	32784	34967	28377	32860	
2166	0	32844	32775	32523	33017	34956	28375	32848	
2167	0	32748	32695	32669	32967	34977	28349	32851	
2168	0	32828	32595	32884	32814	34951	28359	32855	
2169	0	32294	32775	32746	32718	34991	28386	32864	
2170	0	32296	32560	32391	32843	34981	28403	32849	
2171	0	32804	32788	32774	32671	34974	28387	32866	
2172	0	31965	32629	32607	32677	34991	28369	32851	
2173	0	32581	32818	32498	32707	34951	28344	32862	
2174	0	32488	32747	32495	32734	34963	28350	32862	
2175	0	32668	32559	32704	32726	34951	28334	32875	
2176	0	32674	32769	32723	32785	34913	28345	32875	
2177	0	32718	32690	32867	32771	34962	28342	32859	
2178	0	32582	32581	32379	32805	34930	28359	32890	
2179	0	32907	32702	32694	32736	34941	28345	32919	
2180	0	32496	32788	32535	32567	34937	28334	32918	
2181	0	32694	32623	32623	32742	34958	28354	32895	
2182	0	32612	32502	32206	32639	34946	28339	32890	
2183	0	32562	32751	32716	32647	34959	28350	32887	
2184	0	32560	32763	32654	32709	34983	28362	32873	
2185	0	33792	32429	32477	32734	34979	28361	32903	
2186	0	33185	32792	32676	32760	34962	28392	32903	
2187	0	32659	32599	32596	32681	34985	28414	32903	
2188	0	32753	32847	32769	32795	35023	28392	32912	
2189	0	32501	32653	32541	32660	34962	28355	32900	
2190	0	32584	32821	32555	32757	34971	28319	32903	
2191	0	32548	32559	32458	32558	34993	28325	32890	
2192	0	32952	32679	32830	32775	34936	28317	32903	
2193	0	32838	32683	32717	32742	34930	28326	32931	
2194	0	32754	32647	32499	32665	34960	28367	32912	
2195	0	32584	32752	32366	32711	34918	28349	32909	
2196	0	32979	32595	32881	32801	34918	28338	32903	
2197	0	32694	32701	33158	32594	34897	28318	32887	
2198	0	32763	32476	32606	32513	34885	28315	32850	
2199	0	32976	32709	32591	32619	34887	28346	32870	
2200	0	32773	32985	32756	31652	34943	28359	32841	
2201	0	32682	33185	32658	32839	34947	28349	32847	
2202	0	32570	32732	32706	32667	34964	28358	32855	
2203	0	32733	32812	32635	32635	34979	28385	32848	
2204	0	33140	32592	32666	32666	34957	28386	32839	
2205	0	32432	32342	32587	32791	34951	28393	32848	
2206	0	32640	32711	32477	32858	34951	28383	32871	
2207	0	32758	32664	32436	32702	34970	28388	32874	
2208	0	33202	32553	32711	32759	34951	28381	32864	
2209	0	32348	32551	32846	32740	34951	28347	32878	
2210	0	33000	32723	32792	32799	34934	28361	32870	
2211	0	32824	32568	32807	32630	34951	28363	32859	
2212	0	32736	32688	32536	32745	34938	28350	32863	
2213	0	32898	32771	32854	32753	34969	28338	32850	
2214	0	32878	32705	32687	32742	34925	28308	32842	
2215	0	32506	32630	32481	32733	34960	28317	32826	
2216	0	32586	32489	32541	32813	34951	28302	32839	
2217	0	32802	32637	32674	32810	34938	28321	32845	
2218	0	32754	32622	32554	32658	34924	28340	32829	
2219	0	32769	32598	32446	32658	34943	28321	32825	
2220	0	32973	32743	32692	32729	34951	28335	32833	
2221	0	32906	32808	32703	32882	34964	28364	32834	
2222	0	32748	32663	33275	32923	34951	28363	32839	
2223	0	32786	32599	32404	32573	34919	28366	32865	
2224	0	33192	33042	32433	32701	34938	28320	32870	
2225	0	32440	32639	32680	32733	34903	28316	32890	
2226	0	32808	32602	32846	32763	34934	28309	32887	
2227	0	32734	32671	32278	32747	34925	28355	32883	
2228	0	32489	32657	32566	32704	34925	28391	32887	
2229	0	33016	32657	32739	32647	34922	28379	32899	
2230	0	32934	32719	32844	32695	34918	28358	32891	
2231	0	32482	32610	32696	32621	34895	28329	32888	
2232	0	32752	32647	32775	32629	34885	28288	32871	
2233	0	32662	32606	32485	32795	34923	28304	32882	
2234	0	32978	32644	32482	32746	34915	28317	32887	
2235	0	32745	32679	32667	32614	34911	28317	32903	
2236	0	32939	32688	32493	32537	34951	28327	32925	
2237	0	32376	32358	32951	32745	34918	28331	32948	
2238	0	32568	32870	33074	32665	34921	28365	32926	
2239	0	32492	32629	32672	32713	34921	28380	32959	
2240	0	33458	32715	32775	32743	34938	28375	32954	
2241	0	32606	32631	32710	32647	34951	28374	32935	
2242	0	32757	32583	32576	32768	34951	28353	32929	
2243	0	33120	32560	32730	32738	34943	28329	32914	
2244	0	32580	32773	32368	32851	34969	28335	32892	
2245	0	32572	32483	32445	32680	34917	28323	32869	
2246	0	33177	32722	32827	32751	34931	28312	32870	
2247	0	32775	32631	32342	32595	34928	28282	32872	
2248	0	32875	32717	32738	32913	34891	28275	32862	
2249	0	32600	32883	32750	32829	34871	28261	32871	
2250	0	32848	32546	33103	32838	34906	28246	32887	
2251	0	32548	32543	32477	32754	34925	28277	32898	
2252	0	32675	32816	32667	32738	34920	28302	32918	
2253	0	33128	33110	32747	32623	34900	28319	32903	
2254	0	32534	32711	32658	32690	34951	28349	32891	
2255	0	32975	32691	32485	32792	34957	28338	32887	
2256	0	32920	32711	32691	32643	34935	28336	32866	
2257	0	32723	32447	32326	32618	34963	28366	32857	
2258	0	32464	32817	32844	32775	34975	28385	32883	
2259	0	33216	32864	32775	32814	34971	28386	32899	
2260	0	32612	32910	32800	32647	34971	28382	32878	
2261	0	32886	32775	32496	32832	34957	28371	32895	
2262	0	32684	32548	32411	32775	34977	28389	32891	
2263	0	32604	32796	32762	32614	34951	28376	32909	
2264	0	32632	32823	32551	32741	34951	28364	32916	
2265	0	32674	32482	32607	32670	34939	28344	32912	
2266	0	32588	32608	32773	32762	34936	28354	32921	
2267	0	32659	32647	32637	32859	34896	28343	32914	
2268	0	32923	32775	32748	32815	34949	28351	32915	
2269	0	32732	32674	32698	32804	34951	28351	32899	
2270	0	32758	32711	32549	32832	34928	28345	32898	
2271	0	32545	32614	32718	32784	34947	28340	32910	
2272	0	33010	32722	32680	32839	34949	28344	32914	
2273	0	33126	32646	32747	32571	34930	28322	32892	
2274	0	32736	32694	32640	32745	34979	28337	32871	
2275	0	32738	32687	32659	32763	35009	28323	32890	
2276	0	32571	32757	32408	32698	34983	28318	32903	
2277	0	32676	32739	32519	32806	35015	28359	32888	
2278	0	32406	32790	32349	32685	35012	28362	32866	
2279	0	32870	32696	32807	32753	34987	28330	32899	
2280	0	32797	32615	32666	32867	34973	28338	32878	
2281	0	32684	32592	32647	32677	35004	28348	32879	
2282	0	32557	32587	33026	32835	34987	28357	32866	
2283	0	33235	32674	32563	32821	34969	28367	32848	
2284	0	32451	32559	32423	32832	34965	28369	32842	
2285	0	32930	32677	33051	32791	34980	28379	32850	
2286	0	32850	32547	32442	32676	34989	28368	32865	
2287	0	32644	32537	32573	32792	34989	28391	32855	
2288	0	32549	32699	32398	32760	34981	28403	32857	
2289	0	32710	32481	32670	32698	34975	28403	32846	
2290	0	32606	32656	32871	32835	35001	28396	32845	
2291	0	32899	32620	32535	32732	34995	28379	32865	
2292	0	32656	32733	32487	32754	34987	28400	32866	
2293	0	32684	32606	32711	32775	35007	28391	32844	
2294	0	33036	32684	32510	32812	35000	28391	32848	
2295	0	32502	32797	32773	32615	34993	28394	32845	
2296	0	32820	32688	32819	32701	35014	28384	32854	
2297	0	32208	32698	32406	32839	34994	28367	32848	
2298	0	33136	32595	32492	32799	34978	28359	32858	
2299	0	33094	32671	32967	32711	34951	28352	32854	
2300	0	33104	32730	32766	32706	34964	28359	32866	
2301	0	32882	32798	32535	32758	34989	28355	32871	
2302	0	32022	32729	32830	33001	34950	28379	32857	
2303	0	32496	32824	32603	32874	34966	28379	32854	
2304	0	32600	32773	32500	32772	34951	28352	32883	
2305	0	32891	32678	32762	32671	34951	28355	32873	
2306	0	32980	32667	32928	32775	34981	28361	32894	
2307	0	32592	32789	32695	32720	34961	28355	32881	
2308	0	33115	32575	32671	32748	34981	28368	32850	
2309	0	32612	32582	32799	32769	34989	28359	32839	
2310	0	32732	32802	32770	32805	34951	28316	32842	
2311	0	32806	32707	32446	32728	34919	28303	32844	
2312	0	33160	32726	32651	32694	34934	28304	32829	
2313	0	32884	32816	32901	32802	34969	28295	32813	
2314	0	32707	32775	32460	32786	34967	28287	32775	
2315	0	32769	32716	32711	32698	34925	28282	32797	
2316	0	32868	32603	32804	32402	34938	28294	32775	
2317	0	32627	32614	32333	32681	34965	28331	32768	
2318	0	32640	32570	32859	32529	34950	28351	32775	
2319	0	32752	32553	32500	32717	34959	28369	32813	
2320	0	32688	32415	32320	32720	34970	28355	32827	
2321	0	32892	32549	32535	32653	34984	28351	32832	
2322	0	33200	32774	32845	32691	34958	28352	32854	
2323	0	32604	32700	32241	32746	34969	28327	32867	
2324	0	32711	32743	32604	32762	34972	28321	32829	
2325	0	32592	32717	32280	32635	34940	28330	32830	
2326	0	32738	32663	32757	32866	34957	28325	32823	
2327	0	32621	32692	32548	32838	34960	28324	32815	
2328	0	33122	32327	32527	33639	35022	28338	32809	
2329	0	32598	32812	32717	32708	34996	28359	32801	
2330	0	32720	32798	32756	32647	35018	28399	32786	
2331	0	32594	32686	32466	32927	35009	28414	32775	
2332	0	32542	32547	32735	32598	35032	28430	32762	
2333	0	32498	32732	32583	32862	35063	28439	32738	
2334	0	32640	32682	33010	32634	35039	28443	32745	
2335	0	32293	32717	32543	32715	35043	28457	32755	
2336	0	33363	32736	32736	32797	35012	28446	32747	
2337	0	32560	32658	32525	32742	35015	28388	32746	
2338	0	32713	32711	32607	32635	34967	28368	32747	
2339	0	33384	32678	32754	32731	34981	28328	32755	
2340	0	32772	32703	32576	32854	34961	28330	32771	
2341	0	32322	32562	32492	32641	34987	28295	32791	
2342	0	32682	32687	32534	32665	34975	28316	32775	
2343	0	33018	32633	32661	32771	34986	28343	32775	
2344	0	32798	32468	32717	32771	34986	28333	32811	
2345	0	32580	32706	32386	32766	35030	28381	32812	
2346	0	32861	32732	32767	32799	35008	28397	32817	
2347	0	32598	32767	32687	32775	35047	28404	32817	
2348	0	32839	32367	32352	32772	35069	28365	32804	
2349	0	32696	32756	32647	32711	35049	28329	32774	
2350	0	32775	32583	32460	32771	35039	28363	32754	
2351	0	32804	32839	32429	32879	35066	28376	32763	
2352	0	32438	32482	32455	32798	35052	28409	32799	
2353	0	32400	32711	32421	32751	35024	28422	32788	
2354	0	32985	32548	32775	32670	34983	28408	32798	
2355	0	33299	32722	32727	32638	34972	28388	32823	
2356	0	32668	32775	32609	32775	35012	28403	32831	
2357	0	32887	32719	32474	32715	34986	28406	32835	
2358	0	32706	32735	32761	32658	34991	28398	32850	
2359	0	32327	32768	32613	32808	34997	28379	32852	
2360	0	33146	32705	32547	32879	35001	28384	32834	
2361	0	32081	32690	32754	32808	35001	28358	32835	
2362	0	32514	32745	32628	32802	34961	28386	32844	
2363	0	32832	32599	32304	32757	34963	28396	32839	
2364	0	32754	32694	32540	32733	35000	28400	32861	
2365	0	32880	32615	32391	32819	34962	28384	32846	
2366	0	33159	32880	32666	32715	34960	28350	32844	
2367	0	32885	32799	32426	32676	34961	28330	32859	
2368	0	32729	32550	32490	32647	34973	28340	32836	
2369	0	32803	32691	32617	32873	34997	28350	32846	
2370	0	32546	32753	32554	32926	34983	28361	32826	
2371	0	32966	32713	33003	32825	34989	28337	32821	
2372	0	33248	32705	32658	33074	35032	28330	32810	
2373	0	32544	32551	32626	32775	34973	28333	32822	
2374	0	32864	32663	32438	32657	34998	28349	32805	
2375	0	32676	32765	32615	32638	35007	28356	32797	
2376	0	33040	32754	32837	32731	35009	28359	32827	
2377	0	32985	32794	32652	32829	35013	28348	32822	
2378	0	32681	32669	32382	33018	35002	28340	32836	
2379	0	32764	32871	32747	32613	34983	28352	32832	
2380	0	33034	32425	32502	32566	34966	28377	32818	
2381	0	32592	32745	32624	32730	35000	28385	32809	
2382	0	33305	33112	32554	32813	34983	28359	32796	
2383	0	32672	32409	32493	32854	35011	28344	32787	
2384	0	33256	32175	32631	32515	35015	28336	32775	
2385	0	32782	32726	32809	31721	34979	28371	32771	
2386	0	32328	32775	32630	33065	35039	28373	32775	
2387	0	32709	32775	32688	32749	35006	28364	32775	
2388	0	32924	32698	32569	32656	35031	28359	32765	
2389	0	33062	32644	32546	32803	35046	28334	32775	
2390	0	32470	32583	32563	32626	35033	28353	32789	
2391	0	32691	32743	33113	32730	35014	28386	32758	
2392	0	33471	32584	32679	32793	35007	28398	32762	
2393	0	32610	32983	32790	32854	34994	28359	32788	
2394	0	32884	32282	32790	32818	34970	28342	32800	
2395	0	33264	32850	32617	32734	34980	28333	32816	
2396	0	32686	32659	32770	32741	35003	28370	32806	
2397	0	32587	32722	32455	32795	35012	28361	32828	
2398	0	32702	32775	32711	32775	35007	28372	32829	
2399	0	32751	32735	32678	32757	34999	28359	32825	
2400	0	32729	32747	32406	32694	35005	28356	32803	
2401	0	32898	32624	32612	32728	34990	28367	32804	
2402	0	33269	32819	33041	32972	35015	28366	32799	
2403	0	32728	32725	32643	32623	34999	28352	32807	
2404	0	33204	32734	32495	32754	35021	28369	32805	
2405	0	32444	32719	32531	32775	35044	28395	32811	
2406	0	32736	32708	32680	32800	35049	28400	32790	
2407	0	32532	32743	32499	32738	35047	28422	32799	
2408	0	32760	32775	32695	32745	35017	28395	32811	
