# OpenSignals Text File Format
# {"00:07:80:3B:46:38": {"sensor": ["EMG", "EMG", "EMG", "EMG", "XYZ", "XYZ", "XYZ"], "device name": "00:07:80:3B:46:38", "column": ["nSeq", "DI", "FL", "BL", "FR", "BR", "Z", "Y", "X"], "sync interval": 2, "time": "13:51:53.857", "comments": "", "device connection": "BTH00:07:80:3B:46:38", "channels": [1, 2, 3, 5, 6, 7, 8], "date": "2016-6-24", "mode": 0, "digital IO": [0, 1], "firmware version": 772, "device": "biosignalsplux", "position": 0, "sampling rate": 100, "label": ["FL", "BL", "FR", "BR", "Z", "Y", "X"], "resolution": [16, 16, 16, 16, 16, 16, 16], "special": [{}, {}, {}, {}, {}, {}, {}]}}
# EndOfHeader
0	0	32763	32594	32745	0	37223	34575	33734	
1	0	32816	32677	32599	0	37239	34600	33735	
2	0	32774	32769	32621	0	37207	34599	33731	
3	0	32774	32730	32550	0	37231	34600	33741	
4	0	32794	32721	32657	0	37214	34584	33751	
5	0	32802	32726	32543	0	37223	34599	33762	
6	0	32771	32531	32665	0	37249	34618	33749	
7	0	32775	32519	32691	0	37200	34587	33756	
8	0	32789	32547	32516	0	37235	34601	33754	
9	0	32763	32694	32727	0	37224	34636	33735	
10	0	32684	32761	32645	0	37215	34631	33745	
11	0	32737	32754	32615	0	37227	34619	33759	
12	0	32775	32645	32680	0	37218	34621	33773	
13	0	32758	32596	32586	0	37207	34594	33780	
14	0	32769	32660	32531	0	37191	34619	33755	
15	0	32785	32563	32626	0	37191	34599	33773	
16	0	32768	32546	32641	0	37233	34611	33762	
17	0	32846	32687	32573	0	37237	34583	33759	
18	0	32743	32647	32615	0	37232	34603	33759	
19	0	32775	32574	32711	0	37223	34614	33758	
20	0	32771	32679	32654	0	37191	34598	33763	
21	0	32764	32694	32608	0	37243	34562	33758	
22	0	32694	32530	32645	0	37228	34592	33739	
23	0	32736	32798	32604	0	37233	34594	33735	
24	0	32775	32730	32726	0	37214	34622	33746	
25	0	32758	32745	32466	0	37217	34600	33758	
26	0	32790	32702	32642	0	37228	34603	33760	
27	0	32752	32621	32719	0	37216	34611	33743	
28	0	32709	32757	32567	0	37239	34608	33759	
29	0	32800	32737	32647	0	37255	34601	33754	
30	0	32714	32568	32637	0	37203	34611	33739	
31	0	32766	32731	32583	0	37191	34603	33743	
32	0	32768	32711	32730	0	37211	34610	33734	
33	0	32716	32784	32720	0	37223	34614	33755	
34	0	32834	32582	32541	0	37211	34589	33767	
35	0	32771	32655	32673	0	37206	34610	33759	
36	0	32734	32627	32531	0	37207	34599	33755	
37	0	32828	32573	32744	0	37247	34607	33750	
38	0	32798	32583	32723	0	37202	34605	33755	
39	0	32748	32745	32696	0	37219	34593	33773	
40	0	32708	32810	32749	0	37191	34599	33755	
41	0	32784	32540	32660	0	37229	34625	33755	
42	0	32738	32733	32723	0	37233	34597	33740	
43	0	32819	32793	32716	0	37217	34607	33759	
44	0	32717	32722	32594	0	37203	34592	33777	
45	0	32772	32775	32754	0	37235	34591	33772	
46	0	32752	32607	32767	0	37231	34615	33755	
47	0	32822	32753	32694	0	37191	34607	33759	
48	0	32749	32686	32542	0	37211	34594	33743	
49	0	32786	32635	32582	0	37206	34567	33770	
50	0	32751	32672	32641	0	37223	34597	33754	
51	0	32796	32704	32685	0	37212	34597	33744	
52	0	32736	32719	32665	0	37225	34597	33755	
53	0	32752	32679	32631	0	37219	34598	33735	
54	0	32754	32708	32775	0	37211	34611	33759	
55	0	32742	32709	32534	0	37191	34589	33771	
56	0	32774	32762	32606	0	37239	34603	33757	
57	0	32728	32711	32641	0	37221	34585	33751	
58	0	32796	32729	32687	0	37211	34593	33767	
59	0	32792	32658	32573	0	37231	34597	33762	
60	0	32802	32733	32524	0	37206	34597	33767	
61	0	32775	32659	32704	0	37199	34603	33743	
62	0	32728	32617	32798	0	37179	34607	33739	
63	0	32736	32751	32594	0	37203	34601	33743	
64	0	32775	32791	32775	0	37237	34587	33767	
65	0	32765	32555	32683	0	37213	34607	33771	
66	0	32738	32720	32687	0	37223	34609	33751	
67	0	32775	32703	32698	0	37191	34603	33758	
68	0	32729	32740	32530	0	37210	34607	33750	
69	0	32730	32734	32683	0	37211	34607	33759	
70	0	32768	32553	32685	0	37204	34607	33747	
71	0	32813	32775	32697	0	37219	34591	33771	
72	0	32818	32627	32704	0	37224	34609	33751	
73	0	32818	32738	32530	0	37213	34599	33744	
74	0	32808	32711	32679	0	37191	34595	33734	
75	0	32720	32720	32553	0	37214	34607	33731	
76	0	32474	32809	32794	0	37223	34602	33744	
77	0	32734	32711	32758	0	37237	34607	33726	
78	0	32801	32745	32632	0	37206	34599	33740	
79	0	32775	32775	32679	0	37248	34619	33746	
80	0	32792	32703	32738	0	37202	34607	33751	
81	0	32762	32750	32598	0	37210	34612	33755	
82	0	32702	32695	32715	0	37186	34611	33742	
83	0	32702	32549	32717	0	37196	34607	33762	
84	0	32808	32738	32613	0	37247	34599	33785	
85	0	32715	32739	32655	0	37179	34591	33758	
86	0	32786	32602	32787	0	37229	34607	33744	
87	0	32771	32724	32519	0	37221	34610	33762	
88	0	32756	32495	32493	0	37206	34659	33766	
89	0	32768	32771	32665	0	37217	34642	33794	
90	0	32728	32719	32601	0	37211	34594	33782	
91	0	32790	32627	32711	0	37202	34557	33754	
92	0	32778	32591	32733	0	37237	34545	33753	
93	0	32755	32751	32559	0	37233	34584	33730	
94	0	32759	32596	32572	0	37218	34591	33723	
95	0	32739	32588	32466	0	37221	34599	33721	
96	0	32760	32733	32722	0	37191	34611	33721	
97	0	32816	32745	32717	0	37227	34592	33750	
98	0	32704	32775	32685	0	37239	34608	33747	
99	0	32751	32698	32611	0	37229	34611	33741	
100	0	32775	32638	32626	0	37223	34631	33751	
101	0	32762	32765	32669	0	37213	34627	33743	
102	0	32797	32706	32733	0	37221	34624	33755	
103	0	32758	32754	32711	0	37227	34637	33751	
104	0	32695	32775	32560	0	37202	34631	33760	
105	0	32738	32630	32627	0	37219	34614	33760	
106	0	32806	32764	32563	0	37207	34599	33772	
107	0	32775	32742	32463	0	37223	34601	33760	
108	0	32738	32695	32691	0	37196	34590	33765	
109	0	32792	32818	32599	0	37229	34600	33762	
110	0	32784	32694	32712	0	37216	34595	33755	
111	0	32751	32775	32685	0	37239	34605	33751	
112	0	32765	32715	32546	0	37223	34591	33750	
113	0	32826	32731	32647	0	37229	34575	33751	
114	0	32736	32673	32699	0	37239	34582	33737	
115	0	32744	32775	32576	0	37221	34585	33730	
116	0	32752	32638	32695	0	37225	34600	33752	
117	0	32728	32635	32641	0	37218	34615	33745	
118	0	32795	32701	32729	0	37191	34610	33767	
119	0	32803	32743	32595	0	37222	34601	33769	
120	0	32748	32606	32664	0	37202	34611	33754	
121	0	32817	32692	32615	0	37211	34629	33735	
122	0	32739	32498	32647	0	37221	34621	33735	
123	0	32775	32743	32679	0	37210	34617	33735	
124	0	32752	32626	32671	0	37191	34636	33735	
125	0	32732	32685	32535	0	37206	34615	33744	
126	0	32794	32658	32699	0	37237	34636	33752	
127	0	32775	32775	32635	0	37226	34608	33743	
128	0	32762	32773	32528	0	37203	34601	33751	
129	0	32747	32764	32722	0	37225	34615	33763	
130	0	32762	32762	32551	0	37195	34605	33750	
131	0	32804	32682	32667	0	37203	34615	33759	
132	0	32766	32795	32697	0	37207	34625	33747	
133	0	32717	32760	32743	0	37191	34623	33750	
134	0	32709	32775	32475	0	37225	34609	33758	
135	0	32799	32590	32742	0	37220	34617	33755	
136	0	32721	32711	32758	0	37231	34595	33760	
137	0	32775	32671	32617	0	37255	34615	33743	
138	0	32768	32594	32497	0	37209	34623	33748	
139	0	32769	32546	32647	0	37211	34605	33746	
140	0	32744	32791	32612	0	37215	34637	33735	
141	0	32824	32740	32727	0	37197	34609	33759	
142	0	32770	32591	32682	0	37218	34624	33739	
143	0	32783	32681	32526	0	37172	34609	33741	
144	0	32779	32732	32507	0	37209	34624	33754	
145	0	32730	32535	32535	0	37227	34618	33746	
146	0	32728	32570	32641	0	37223	34619	33758	
147	0	32809	32559	32611	0	37223	34623	33735	
148	0	32775	32810	32546	0	37216	34622	33736	
149	0	32772	32724	32655	0	37211	34603	33758	
150	0	32780	32820	32505	0	37220	34631	33753	
151	0	32757	32775	32559	0	37206	34627	33741	
152	0	32816	32743	32500	0	37211	34631	33744	
153	0	32756	32739	32728	0	37233	34619	33741	
154	0	32775	32754	32690	0	37209	34625	33750	
155	0	32715	32704	32758	0	37217	34614	33754	
156	0	32754	32738	32551	0	37233	34611	33767	
157	0	32796	32583	32684	0	37197	34613	33747	
158	0	32754	32791	32759	0	37202	34627	33746	
159	0	32791	32681	32688	0	37203	34620	33742	
160	0	32775	32767	32748	0	37210	34617	33742	
161	0	32775	32746	32726	0	37217	34622	33741	
162	0	32793	32677	32723	0	37215	34614	33763	
163	0	32804	32683	32583	0	37204	34600	33765	
164	0	32771	32694	32703	0	37233	34621	33751	
165	0	32791	32694	32743	0	37222	34631	33728	
166	0	32857	32693	32515	0	37191	34624	33735	
167	0	32796	32681	32694	0	37203	34614	33735	
168	0	32722	32599	32658	0	37206	34620	33735	
169	0	32499	32693	32834	0	37186	34646	33735	
170	0	32736	32666	32790	0	37199	34642	33735	
171	0	32858	32706	32563	0	37214	34623	33743	
172	0	32784	32758	32687	0	37204	34607	33742	
173	0	32766	32711	32566	0	37187	34619	33763	
174	0	32769	32663	32495	0	37223	34638	33744	
175	0	32762	32793	32691	0	37219	34637	33725	
176	0	32722	32623	32619	0	37222	34631	33735	
177	0	32790	32699	32609	0	37213	34629	33760	
178	0	32754	32608	32675	0	37239	34636	33758	
179	0	32758	32635	32452	0	37214	34630	33763	
180	0	32775	32719	32723	0	37210	34637	33735	
181	0	32718	32704	32717	0	37219	34646	33766	
182	0	32762	32797	32628	0	37187	34662	33751	
183	0	32714	32598	32731	0	37191	34615	33755	
184	0	32767	32684	32772	0	37204	34596	33747	
185	0	32800	32695	32749	0	37203	34595	33734	
186	0	32775	32605	32620	0	37208	34620	33715	
187	0	32748	32767	32639	0	37221	34631	33712	
188	0	32786	32669	32615	0	37223	34609	33754	
189	0	32792	32647	32516	0	37187	34628	33709	
190	0	32724	32775	32766	0	37211	34619	33734	
191	0	32775	32635	32580	0	37209	34625	33750	
192	0	32770	32668	32715	0	37219	34651	33734	
193	0	32728	32659	32710	0	37209	34643	33734	
194	0	32708	32663	32609	0	37223	34651	33735	
195	0	32775	32797	32763	0	37235	34656	33747	
196	0	32706	32631	32662	0	37178	34640	33741	
197	0	32741	32509	32667	0	37198	34643	33747	
198	0	32746	32711	32775	0	37215	34639	33751	
199	0	32718	32775	32646	0	37208	34642	33750	
200	0	32748	32544	32677	0	37216	34631	33735	
201	0	32724	32628	32697	0	37219	34637	33749	
202	0	32744	32743	32561	0	37176	34623	33762	
203	0	32773	32747	32689	0	37204	34619	33751	
204	0	32786	32763	32743	0	37223	34608	33744	
205	0	32745	32761	32687	0	37225	34616	33735	
206	0	32718	32620	32614	0	37187	34623	33716	
207	0	32775	32534	32655	0	37229	34607	33710	
208	0	32726	32698	32683	0	37231	34626	33746	
209	0	32792	32718	32666	0	37216	34647	33728	
210	0	32792	32575	32679	0	37209	34624	33746	
211	0	32766	32736	32594	0	37230	34643	33743	
212	0	32775	32722	32524	0	37206	34638	33721	
213	0	32786	32745	32699	0	37210	34631	33745	
214	0	32730	32801	32714	0	37217	34623	33741	
215	0	32745	32668	32469	0	37229	34627	33735	
216	0	32775	32530	32678	0	37186	34646	33728	
217	0	32773	32613	32519	0	37213	34643	33731	
218	0	32772	32671	32743	0	37214	34646	33751	
219	0	32775	32576	32511	0	37191	34639	33743	
220	0	32858	32734	32711	0	37213	34642	33735	
221	0	32708	32735	32670	0	37228	34625	33758	
222	0	32760	32763	32688	0	37206	34623	33744	
223	0	32800	32743	32586	0	37187	34627	33752	
224	0	32752	32773	32696	0	37247	34601	33751	
225	0	32824	32655	32655	0	37199	34631	33748	
226	0	32727	32538	32635	0	37202	34639	33735	
227	0	32741	32790	32647	0	37215	34643	33743	
228	0	32746	32647	32711	0	37191	34631	33725	
229	0	32792	32519	32703	0	37223	34631	33739	
230	0	32749	32683	32524	0	37219	34631	33730	
231	0	32775	32683	32633	0	37202	34619	33751	
232	0	32658	32749	32706	0	37200	34627	33742	
233	0	32766	32739	32599	0	37220	34626	33730	
234	0	32788	32617	32635	0	37215	34623	33730	
235	0	32793	32738	32775	0	37238	34626	33734	
236	0	32768	32506	32703	0	37210	34619	33735	
237	0	32775	32790	32557	0	37224	34629	33727	
238	0	32744	32759	32691	0	37221	34619	33730	
239	0	32772	32743	32715	0	37187	34631	33730	
240	0	32760	32807	32567	0	37219	34625	33728	
241	0	32765	32603	32635	0	37191	34623	33743	
242	0	32723	32706	32646	0	37223	34623	33747	
243	0	32772	32700	32678	0	37223	34619	33743	
244	0	32744	32691	32631	0	37199	34623	33749	
245	0	32790	32801	32634	0	37229	34630	33751	
246	0	32782	32615	32601	0	37233	34628	33735	
247	0	32772	32687	32653	0	37169	34616	33760	
248	0	32751	32680	32633	0	37209	34629	33744	
249	0	32801	32681	32671	0	37211	34619	33748	
250	0	32766	32738	32714	0	37218	34621	33754	
251	0	32791	32773	32581	0	37211	34627	33755	
252	0	32739	32731	32683	0	37199	34619	33734	
253	0	32796	32698	32607	0	37200	34617	33734	
254	0	32784	32690	32711	0	37216	34626	33733	
255	0	32846	32743	32676	0	37202	34622	33750	
256	0	32792	32516	32613	0	37225	34610	33735	
257	0	32862	32630	32611	0	37211	34603	33762	
258	0	32890	32699	32567	0	37215	34619	33730	
259	0	32677	32633	32554	0	37223	34611	33743	
260	0	32464	32775	32831	0	37223	34613	33735	
261	0	32782	32655	32615	0	37237	34619	33730	
262	0	32848	32692	32637	0	37211	34609	33728	
263	0	32775	32681	32627	0	37223	34619	33727	
264	0	32770	32578	32682	0	37199	34611	33735	
265	0	32811	32703	32538	0	37231	34627	33739	
266	0	32768	32743	32704	0	37200	34645	33741	
267	0	32771	32653	32621	0	37242	34622	33747	
268	0	32745	32703	32630	0	37235	34626	33767	
269	0	32724	32687	32600	0	37209	34607	33762	
270	0	32770	32756	32608	0	37206	34619	33742	
271	0	32768	32734	32679	0	37221	34631	33735	
272	0	32790	32743	32619	0	37237	34644	33768	
273	0	32775	32717	32644	0	37247	34624	33782	
274	0	32771	32556	32576	0	37245	34593	33758	
275	0	32760	32707	32670	0	37219	34578	33739	
276	0	32758	32625	32565	0	37218	34574	33746	
277	0	32716	32743	32801	0	37236	34597	33734	
278	0	32731	32718	32647	0	37237	34616	33728	
279	0	32831	32710	32622	0	37227	34603	33721	
280	0	32750	32634	32647	0	37241	34595	33708	
281	0	32793	32639	32557	0	37191	34623	33735	
282	0	32749	32767	32637	0	37241	34627	33730	
283	0	32800	32766	32587	0	37191	34631	33741	
284	0	32724	32800	32611	0	37207	34619	33750	
285	0	32738	32710	32663	0	37217	34631	33758	
286	0	32765	32550	32811	0	37207	34627	33735	
287	0	32730	32775	32551	0	37233	34631	33734	
288	0	32793	32641	32647	0	37223	34647	33743	
289	0	32808	32669	32575	0	37197	34623	33747	
290	0	32775	32730	32711	0	37191	34607	33759	
291	0	32752	32729	32525	0	37223	34603	33765	
292	0	32799	32735	32667	0	37223	34610	33755	
293	0	32804	32647	32637	0	37218	34612	33761	
294	0	32748	32677	32690	0	37236	34615	33750	
295	0	32742	32647	32562	0	37225	34601	33740	
296	0	32763	32567	32694	0	37240	34605	33743	
297	0	32784	32757	32794	0	37245	34592	33743	
298	0	32758	32670	32664	0	37202	34592	33758	
299	0	32796	32702	32743	0	37224	34585	33731	
300	0	32702	32769	32756	0	37219	34601	33735	
301	0	32754	32576	32523	0	37224	34603	33755	
302	0	32773	32560	32695	0	37206	34617	33750	
303	0	32745	32626	32562	0	37231	34615	33761	
304	0	32742	32579	32694	0	37222	34625	33730	
305	0	32798	32765	32710	0	37215	34601	33747	
306	0	32788	32839	32519	0	37196	34613	33746	
307	0	32784	32737	32698	0	37235	34611	33735	
308	0	32720	32775	32723	0	37226	34619	33734	
309	0	32775	32790	32624	0	37217	34607	33747	
310	0	32746	32675	32689	0	37211	34614	33756	
311	0	32744	32726	32711	0	37237	34603	33751	
312	0	32754	32707	32617	0	37206	34615	33744	
313	0	32751	32577	32575	0	37179	34603	33748	
314	0	32743	32711	32581	0	37197	34597	33743	
315	0	32714	32737	32590	0	37222	34607	33766	
316	0	32746	32775	32757	0	37179	34601	33774	
317	0	32734	32775	32747	0	37245	34597	33759	
318	0	32769	32711	32474	0	37210	34603	33757	
319	0	32745	32562	32686	0	37217	34599	33741	
320	0	32790	32773	32588	0	37217	34597	33743	
321	0	32762	32576	32663	0	37206	34607	33760	
322	0	32756	32607	32525	0	37210	34597	33767	
323	0	32775	32743	32498	0	37215	34614	33759	
324	0	32751	32698	32684	0	37206	34599	33760	
325	0	32736	32659	32472	0	37239	34599	33742	
326	0	32742	32691	32582	0	37225	34600	33747	
327	0	32786	32652	32611	0	37225	34601	33753	
328	0	32790	32530	32538	0	37233	34587	33743	
329	0	32784	32591	32707	0	37231	34601	33735	
330	0	32752	32551	32706	0	37205	34613	33735	
331	0	32740	32475	32630	0	37213	34611	33745	
332	0	32768	32677	32614	0	37228	34592	33748	
333	0	32740	32678	32615	0	37179	34593	33758	
334	0	32782	32691	32759	0	37227	34605	33743	
335	0	32775	32507	32540	0	37247	34615	33735	
336	0	32773	32775	32600	0	37226	34610	33739	
337	0	32784	32793	32716	0	37223	34595	33755	
338	0	32732	32710	32615	0	37213	34597	33756	
339	0	32740	32679	32452	0	37222	34605	33759	
340	0	32773	32754	32547	0	37202	34586	33760	
341	0	32800	32679	32514	0	37223	34611	33735	
342	0	32762	32554	32647	0	37202	34617	33751	
343	0	32760	32751	32601	0	37208	34607	33746	
344	0	32830	32602	32630	0	37235	34601	33749	
345	0	32722	32599	32652	0	37209	34599	33762	
346	0	32751	32695	32563	0	37187	34600	33753	
347	0	32782	32623	32662	0	37213	34597	33751	
348	0	32790	32577	32579	0	37232	34599	33755	
349	0	32792	32711	32694	0	37209	34611	33751	
350	0	32745	32790	32711	0	37223	34614	33741	
351	0	32813	32717	32560	0	37203	34601	33751	
352	0	32775	32623	32557	0	37211	34611	33753	
353	0	32832	32743	32543	0	37199	34599	33735	
354	0	32819	32742	32551	0	37211	34617	33735	
355	0	32903	32664	32563	0	37202	34605	33751	
356	0	32771	32669	32415	0	37218	34607	33755	
357	0	32528	32588	32878	0	37217	34614	33742	
358	0	32680	32727	32630	0	37203	34591	33747	
359	0	32848	32715	32589	0	37196	34601	33763	
360	0	32856	32746	32566	0	37223	34599	33758	
361	0	32829	32662	32763	0	37227	34603	33735	
362	0	32737	32698	32683	0	37202	34620	33744	
363	0	32816	32711	32711	0	37202	34612	33748	
364	0	32738	32703	32626	0	37212	34619	33746	
365	0	32744	32679	32691	0	37217	34607	33771	
366	0	32804	32736	32658	0	37243	34599	33789	
367	0	32806	32775	32634	0	37206	34605	33759	
368	0	32718	32571	32690	0	37227	34611	33757	
369	0	32764	32677	32735	0	37238	34635	33767	
370	0	32731	32514	32567	0	37234	34653	33773	
371	0	32749	32655	32703	0	37235	34588	33778	
372	0	32748	32738	32732	0	37209	34584	33757	
373	0	32726	32735	32672	0	37211	34573	33743	
374	0	32783	32775	32606	0	37219	34578	33730	
375	0	32781	32805	32711	0	37187	34598	33744	
376	0	32764	32536	32674	0	37223	34603	33735	
377	0	32786	32775	32619	0	37248	34599	33731	
378	0	32775	32811	32711	0	37225	34605	33746	
379	0	32742	32733	32552	0	37207	34616	33730	
380	0	32794	32694	32473	0	37223	34601	33758	
381	0	32775	32631	32727	0	37211	34618	33746	
382	0	32763	32647	32731	0	37200	34607	33740	
383	0	32767	32799	32647	0	37237	34629	33751	
384	0	32759	32807	32696	0	37210	34617	33746	
385	0	32756	32766	32672	0	37208	34611	33754	
386	0	32744	32755	32720	0	37191	34611	33767	
387	0	32749	32775	32518	0	37233	34615	33763	
388	0	32775	32662	32591	0	37215	34598	33783	
389	0	32747	32685	32681	0	37219	34594	33759	
390	0	32740	32646	32743	0	37183	34590	33763	
391	0	32755	32664	32519	0	37210	34599	33745	
392	0	32730	32535	32679	0	37231	34590	33760	
393	0	32784	32703	32596	0	37213	34591	33756	
394	0	32730	32677	32763	0	37215	34592	33758	
395	0	32759	32670	32516	0	37202	34586	33743	
396	0	32790	32797	32661	0	37220	34575	33739	
397	0	32741	32670	32599	0	37255	34585	33727	
398	0	32813	32741	32772	0	37233	34607	33741	
399	0	32748	32728	32581	0	37199	34613	33743	
400	0	32745	32609	32629	0	37244	34586	33773	
401	0	32744	32749	32641	0	37214	34611	33763	
402	0	32744	32704	32773	0	37225	34613	33757	
403	0	32808	32711	32611	0	37223	34605	33761	
404	0	32751	32635	32761	0	37213	34584	33759	
405	0	32770	32743	32658	0	37239	34601	33728	
406	0	32780	32705	32615	0	37224	34592	33754	
407	0	32741	32704	32666	0	37229	34614	33760	
408	0	32686	32592	32558	0	37214	34608	33735	
409	0	32748	32726	32775	0	37245	34616	33760	
410	0	32732	32639	32715	0	37214	34600	33759	
411	0	32724	32626	32771	0	37225	34594	33775	
412	0	32745	32794	32763	0	37224	34601	33755	
413	0	32771	32743	32722	0	37211	34603	33755	
414	0	32784	32542	32687	0	37213	34599	33763	
415	0	32736	32594	32658	0	37219	34599	33750	
416	0	32730	32694	32690	0	37221	34600	33750	
417	0	32813	32626	32599	0	37204	34607	33760	
418	0	32758	32699	32659	0	37251	34600	33762	
419	0	32768	32663	32675	0	37255	34602	33744	
420	0	32747	32670	32740	0	37211	34615	33762	
421	0	32744	32679	32695	0	37223	34613	33735	
422	0	32762	32795	32655	0	37223	34599	33754	
423	0	32732	32583	32655	0	37225	34601	33764	
424	0	32771	32683	32489	0	37227	34614	33742	
425	0	32728	32555	32658	0	37219	34600	33751	
426	0	32730	32647	32611	0	37216	34600	33733	
427	0	32775	32663	32683	0	37202	34593	33742	
428	0	32763	32615	32727	0	37216	34597	33750	
429	0	32780	32751	32642	0	37211	34610	33761	
430	0	32760	32703	32695	0	37206	34594	33762	
431	0	32804	32530	32665	0	37222	34614	33744	
432	0	32775	32735	32695	0	37203	34615	33766	
433	0	32775	32546	32538	0	37230	34619	33736	
434	0	32770	32647	32660	0	37217	34609	33766	
435	0	32769	32623	32738	0	37223	34611	33745	
436	0	32716	32789	32642	0	37185	34610	33750	
437	0	32784	32775	32554	0	37239	34595	33759	
438	0	32722	32799	32750	0	37202	34605	33746	
439	0	32812	32738	32670	0	37235	34613	33759	
440	0	32740	32533	32680	0	37223	34607	33759	
441	0	32775	32598	32598	0	37191	34595	33751	
442	0	32735	32678	32722	0	37215	34600	33757	
443	0	32736	32707	32766	0	37220	34631	33743	
444	0	32769	32608	32563	0	37241	34602	33760	
445	0	32762	32723	32581	0	37228	34599	33748	
446	0	32754	32707	32775	0	37227	34599	33750	
447	0	32798	32744	32726	0	37209	34601	33765	
448	0	32775	32675	32501	0	37233	34588	33743	
449	0	32734	32738	32734	0	37226	34595	33730	
450	0	32741	32758	32663	0	37239	34600	33747	
451	0	32764	32775	32703	0	37231	34611	33748	
452	0	32720	32677	32594	0	37213	34611	33754	
453	0	32786	32691	32534	0	37219	34599	33743	
454	0	32787	32701	32658	0	37225	34592	33746	
455	0	32877	32683	32586	0	37193	34587	33751	
456	0	32706	32739	32660	0	37227	34595	33750	
457	0	32474	32787	32914	0	37191	34586	33758	
458	0	32815	32744	32527	0	37237	34597	33738	
459	0	32892	32610	32698	0	37191	34592	33747	
460	0	32814	32763	32653	0	37216	34607	33760	
461	0	32839	32761	32583	0	37217	34611	33754	
462	0	32790	32767	32731	0	37207	34615	33741	
463	0	32748	32759	32602	0	37225	34623	33739	
464	0	32793	32692	32665	0	37211	34603	33757	
465	0	32769	32567	32557	0	37223	34597	33769	
466	0	32749	32635	32640	0	37239	34601	33766	
467	0	32766	32738	32514	0	37248	34593	33746	
468	0	32789	32688	32703	0	37206	34623	33755	
469	0	32804	32682	32548	0	37210	34631	33767	
470	0	32794	32623	32617	0	37229	34639	33767	
471	0	32770	32567	32657	0	37224	34607	33767	
472	0	32740	32711	32672	0	37223	34549	33754	
473	0	32758	32695	32671	0	37211	34578	33735	
474	0	32678	32607	32658	0	37207	34599	33725	
475	0	32727	32724	32563	0	37215	34601	33727	
476	0	32758	32719	32720	0	37210	34602	33731	
477	0	32775	32647	32576	0	37183	34603	33740	
478	0	32750	32709	32667	0	37222	34590	33742	
479	0	32793	32690	32719	0	37217	34611	33754	
480	0	32736	32605	32728	0	37198	34605	33752	
481	0	32747	32798	32690	0	37199	34611	33756	
482	0	32762	32657	32668	0	37219	34619	33743	
483	0	32736	32485	32506	0	37191	34609	33759	
484	0	32820	32596	32607	0	37233	34636	33741	
485	0	32756	32609	32733	0	37206	34612	33756	
486	0	32711	32617	32663	0	37214	34616	33760	
487	0	32740	32726	32703	0	37211	34595	33772	
488	0	32782	32737	32637	0	37190	34600	33752	
489	0	32746	32694	32699	0	37247	34599	33766	
490	0	32775	32739	32708	0	37231	34603	33746	
491	0	32775	32673	32547	0	37209	34603	33735	
492	0	32757	32667	32527	0	37215	34605	33744	
493	0	32754	32577	32677	0	37235	34592	33751	
494	0	32775	32567	32506	0	37227	34591	33745	
495	0	32750	32755	32493	0	37237	34583	33750	
496	0	32790	32806	32635	0	37202	34574	33727	
497	0	32743	32738	32468	0	37202	34603	33735	
498	0	32754	32721	32775	0	37220	34619	33724	
499	0	32717	32762	32646	0	37220	34599	33762	
500	0	32722	32612	32802	0	37227	34607	33763	
501	0	32759	32731	32583	0	37223	34611	33749	
502	0	32746	32813	32614	0	37231	34623	33735	
503	0	32826	32746	32726	0	37217	34611	33751	
504	0	32752	32599	32587	0	37220	34610	33755	
505	0	32750	32631	32542	0	37218	34619	33756	
506	0	32742	32717	32720	0	37218	34614	33767	
507	0	32762	32559	32716	0	37208	34607	33762	
508	0	32700	32762	32747	0	37210	34605	33754	
509	0	32742	32754	32708	0	37171	34593	33769	
510	0	32802	32617	32711	0	37191	34605	33759	
511	0	32752	32634	32706	0	37217	34608	33758	
512	0	32744	32737	32713	0	37223	34613	33742	
513	0	32743	32664	32751	0	37230	34611	33754	
514	0	32727	32726	32687	0	37233	34595	33766	
515	0	32721	32679	32725	0	37233	34610	33758	
516	0	32780	32671	32583	0	37233	34600	33748	
517	0	32726	32731	32470	0	37197	34615	33741	
518	0	32768	32730	32663	0	37215	34616	33744	
519	0	32800	32656	32663	0	37222	34619	33755	
520	0	32757	32621	32534	0	37233	34625	33737	
521	0	32726	32753	32766	0	37240	34608	33749	
522	0	32770	32702	32573	0	37197	34611	33734	
523	0	32786	32738	32631	0	37214	34619	33735	
524	0	32782	32789	32742	0	37206	34619	33734	
525	0	32754	32775	32790	0	37220	34614	33730	
526	0	32752	32685	32694	0	37243	34617	33735	
527	0	32738	32749	32661	0	37216	34625	33730	
528	0	32775	32611	32639	0	37206	34627	33735	
529	0	32741	32835	32619	0	37191	34619	33747	
530	0	32749	32731	32663	0	37223	34610	33755	
531	0	32824	32723	32631	0	37210	34614	33754	
532	0	32734	32735	32735	0	37207	34608	33735	
533	0	32823	32746	32532	0	37196	34623	33751	
534	0	32784	32732	32727	0	37220	34623	33751	
535	0	32846	32617	32747	0	37221	34624	33751	
536	0	32832	32652	32646	0	37199	34623	33741	
537	0	32769	32647	32583	0	37198	34617	33750	
538	0	32775	32815	32763	0	37210	34616	33744	
539	0	32830	32774	32628	0	37217	34610	33759	
540	0	32782	32694	32640	0	37223	34620	33735	
541	0	32734	32774	32644	0	37208	34618	33743	
542	0	32794	32725	32671	0	37212	34615	33750	
543	0	32751	32606	32686	0	37208	34609	33759	
544	0	32749	32514	32717	0	37221	34631	33739	
545	0	32792	32718	32669	0	37213	34610	33730	
546	0	32739	32761	32743	0	37213	34621	33747	
547	0	32770	32677	32642	0	37213	34621	33734	
548	0	32754	32720	32708	0	37225	34623	33717	
549	0	32737	32758	32642	0	37233	34631	33744	
550	0	32720	32623	32615	0	37212	34623	33742	
551	0	32802	32749	32749	0	37217	34623	33741	
552	0	32890	32676	32655	0	37207	34623	33726	
553	0	32874	32734	32634	0	37225	34631	33731	
554	0	32711	32766	32662	0	37213	34610	33744	
555	0	32591	32789	32845	0	37218	34619	33731	
556	0	32607	32636	32672	0	37225	34625	33725	
557	0	32845	32721	32487	0	37223	34615	33734	
558	0	32876	32735	32670	0	37187	34619	33734	
559	0	32736	32517	32636	0	37202	34621	33746	
560	0	32790	32763	32655	0	37247	34623	33751	
561	0	32839	32534	32498	0	37206	34637	33735	
562	0	32770	32825	32790	0	37204	34643	33730	
563	0	32774	32638	32592	0	37233	34631	33762	
564	0	32764	32676	32658	0	37213	34631	33766	
565	0	32790	32712	32630	0	37219	34622	33763	
566	0	32789	32703	32662	0	37211	34631	33746	
567	0	32820	32797	32775	0	37203	34657	33759	
568	0	32832	32614	32738	0	37221	34656	33763	
569	0	32775	32757	32667	0	37196	34653	33747	
570	0	32790	32662	32630	0	37202	34609	33747	
571	0	32780	32669	32685	0	37179	34598	33728	
572	0	32795	32703	32699	0	37189	34606	33718	
573	0	32775	32818	32505	0	37207	34605	33720	
574	0	32739	32793	32623	0	37254	34614	33730	
575	0	32724	32743	32598	0	37191	34625	33728	
576	0	32775	32750	32775	0	37202	34636	33735	
577	0	32717	32765	32684	0	37223	34637	33725	
578	0	32768	32738	32541	0	37207	34631	33744	
579	0	32784	32747	32615	0	37219	34663	33735	
580	0	32768	32773	32530	0	37223	34663	33719	
581	0	32772	32741	32731	0	37218	34659	33755	
582	0	32714	32689	32757	0	37206	34663	33735	
583	0	32758	32708	32728	0	37215	34663	33744	
584	0	32736	32771	32683	0	37207	34643	33741	
585	0	32806	32722	32698	0	37209	34623	33755	
586	0	32725	32575	32527	0	37186	34627	33750	
587	0	32762	32483	32519	0	37183	34619	33746	
588	0	32764	32579	32742	0	37211	34631	33734	
589	0	32734	32611	32732	0	37233	34622	33743	
590	0	32840	32709	32706	0	37189	34631	33730	
591	0	32818	32834	32690	0	37207	34616	33735	
592	0	32792	32626	32646	0	37216	34627	33721	
593	0	32762	32775	32601	0	37202	34610	33716	
594	0	32782	32773	32597	0	37206	34623	33718	
595	0	32781	32549	32668	0	37219	34636	33747	
596	0	32723	32705	32758	0	37223	34661	33731	
597	0	32775	32730	32557	0	37222	34639	33755	
598	0	32803	32630	32743	0	37206	34623	33730	
599	0	32743	32711	32631	0	37199	34637	33731	
600	0	32747	32761	32644	0	37208	34631	33739	
601	0	32789	32670	32677	0	37211	34640	33735	
602	0	32742	32793	32545	0	37207	34648	33730	
603	0	32775	32703	32686	0	37221	34651	33730	
604	0	32752	32762	32519	0	37198	34646	33731	
605	0	32803	32599	32585	0	37200	34648	33751	
606	0	32766	32706	32630	0	37191	34655	33735	
607	0	32720	32552	32695	0	37191	34647	33735	
608	0	32800	32747	32619	0	37191	34631	33734	
609	0	32752	32486	32542	0	37207	34659	33719	
610	0	32745	32695	32567	0	37218	34631	33747	
611	0	32818	32775	32756	0	37214	34637	33728	
612	0	32732	32739	32585	0	37229	34627	33744	
613	0	32775	32579	32756	0	37206	34651	33730	
614	0	32762	32550	32660	0	37209	34637	33758	
615	0	32754	32484	32792	0	37206	34631	33741	
616	0	32823	32711	32711	0	37211	34629	33750	
617	0	32775	32687	32613	0	37219	34637	33750	
618	0	32718	32546	32593	0	37190	34630	33751	
619	0	32789	32734	32501	0	37208	34651	33727	
620	0	32810	32667	32646	0	37212	34635	33739	
621	0	32766	32703	32676	0	37217	34631	33735	
622	0	32768	32637	32647	0	37213	34639	33731	
623	0	32800	32719	32624	0	37177	34631	33735	
624	0	32792	32768	32569	0	37202	34637	33734	
625	0	32715	32615	32621	0	37210	34637	33725	
626	0	32775	32535	32514	0	37206	34637	33723	
627	0	32818	32763	32615	0	37191	34651	33730	
628	0	32814	32733	32571	0	37191	34636	33721	
629	0	32758	32734	32707	0	37221	34640	33730	
630	0	32730	32711	32620	0	37219	34646	33727	
631	0	32742	32715	32495	0	37211	34648	33727	
632	0	32759	32741	32647	0	37223	34631	33735	
633	0	32742	32733	32575	0	37217	34637	33728	
634	0	32765	32614	32637	0	37216	34629	33734	
635	0	32791	32679	32711	0	37183	34649	33721	
636	0	32743	32734	32757	0	37199	34652	33730	
637	0	32784	32662	32671	0	37209	34646	33741	
638	0	32742	32724	32665	0	37215	34631	33744	
639	0	32768	32775	32530	0	37191	34642	33735	
640	0	32748	32683	32547	0	37199	34639	33735	
641	0	32808	32550	32595	0	37199	34658	33731	
642	0	32742	32700	32647	0	37200	34642	33730	
643	0	32744	32772	32701	0	37202	34631	33721	
644	0	32775	32708	32589	0	37207	34634	33731	
645	0	32872	32677	32647	0	37218	34642	33719	
646	0	32854	32655	32514	0	37206	34631	33730	
647	0	32699	32698	32690	0	37199	34644	33724	
648	0	32428	32688	32923	0	37183	34631	33723	
649	0	32760	32617	32728	0	37200	34649	33708	
650	0	32888	32647	32631	0	37183	34643	33707	
651	0	32792	32729	32551	0	37191	34643	33721	
652	0	32754	32683	32615	0	37215	34651	33719	
653	0	32773	32551	32678	0	37189	34640	33743	
654	0	32764	32749	32694	0	37191	34645	33712	
655	0	32764	32626	32594	0	37233	34651	33728	
656	0	32758	32561	32715	0	37202	34655	33762	
657	0	32745	32638	32642	0	37208	34640	33758	
658	0	32716	32583	32689	0	37219	34658	33727	
659	0	32752	32575	32614	0	37202	34653	33735	
660	0	32765	32804	32566	0	37216	34663	33750	
661	0	32784	32754	32794	0	37244	34662	33741	
662	0	32740	32729	32547	0	37217	34640	33726	
663	0	32773	32775	32711	0	37217	34599	33735	
664	0	32795	32638	32662	0	37196	34603	33719	
665	0	32784	32707	32698	0	37217	34625	33703	
666	0	32762	32539	32699	0	37211	34627	33719	
667	0	32772	32679	32640	0	37191	34642	33707	
668	0	32811	32752	32742	0	37216	34627	33700	
669	0	32820	32633	32623	0	37191	34620	33735	
670	0	32766	32739	32769	0	37226	34639	33728	
671	0	32775	32647	32515	0	37217	34646	33750	
672	0	32806	32538	32670	0	37196	34663	33735	
673	0	32771	32743	32707	0	37233	34660	33743	
674	0	32793	32731	32576	0	37209	34651	33730	
675	0	32730	32642	32578	0	37191	34651	33730	
676	0	32704	32601	32722	0	37207	34658	33728	
677	0	32774	32786	32716	0	37186	34631	33746	
678	0	32754	32805	32655	0	37191	34639	33747	
679	0	32798	32621	32629	0	37222	34632	33746	
680	0	32788	32731	32495	0	37212	34631	33742	
681	0	32771	32773	32666	0	37218	34617	33751	
682	0	32743	32826	32638	0	37219	34611	33728	
683	0	32786	32663	32591	0	37183	34621	33721	
684	0	32775	32762	32518	0	37235	34616	33743	
685	0	32728	32766	32700	0	37224	34611	33728	
686	0	32756	32682	32634	0	37203	34619	33711	
687	0	32766	32632	32661	0	37217	34607	33723	
688	0	32725	32784	32553	0	37255	34621	33735	
689	0	32731	32816	32819	0	37216	34631	33731	
690	0	32724	32739	32656	0	37181	34611	33749	
691	0	32721	32732	32563	0	37223	34639	33735	
692	0	32741	32647	32670	0	37215	34643	33735	
693	0	32800	32719	32570	0	37198	34639	33731	
694	0	32794	32615	32674	0	37250	34631	33730	
695	0	32792	32739	32621	0	37214	34630	33730	
696	0	32713	32711	32707	0	37215	34636	33721	
697	0	32764	32698	32553	0	37223	34629	33718	
698	0	32754	32658	32656	0	37200	34631	33731	
699	0	32808	32683	32609	0	37179	34626	33739	
700	0	32804	32619	32598	0	37191	34629	33735	
701	0	32699	32745	32563	0	37219	34608	33735	
702	0	32740	32799	32711	0	37217	34631	33731	
703	0	32768	32707	32657	0	37199	34627	33753	
704	0	32832	32767	32505	0	37191	34605	33744	
705	0	32720	32725	32525	0	37222	34636	33731	
706	0	32826	32727	32699	0	37217	34627	33728	
707	0	32760	32741	32673	0	37226	34619	33735	
708	0	32760	32790	32676	0	37186	34619	33766	
709	0	32744	32711	32762	0	37199	34637	33721	
710	0	32732	32557	32711	0	37217	34618	33734	
711	0	32728	32543	32635	0	37224	34623	33714	
712	0	32787	32706	32609	0	37212	34615	33735	
713	0	32771	32735	32611	0	37187	34625	33745	
714	0	32754	32746	32519	0	37181	34619	33727	
715	0	32784	32610	32722	0	37199	34630	33730	
716	0	32814	32679	32775	0	37231	34603	33752	
717	0	32794	32714	32674	0	37229	34607	33735	
718	0	32838	32666	32543	0	37223	34607	33728	
719	0	32742	32658	32509	0	37237	34618	33709	
720	0	32838	32727	32589	0	37231	34616	33730	
721	0	32786	32787	32587	0	37204	34618	33747	
722	0	32786	32743	32725	0	37206	34623	33734	
723	0	32750	32749	32527	0	37235	34627	33746	
724	0	32775	32775	32669	0	37219	34615	33731	
725	0	32743	32735	32743	0	37220	34614	33755	
726	0	32728	32711	32789	0	37244	34605	33735	
727	0	32848	32743	32624	0	37224	34627	33741	
728	0	32791	32775	32667	0	37191	34631	33743	
729	0	32786	32629	32711	0	37202	34619	33750	
730	0	32742	32710	32711	0	37223	34618	33758	
731	0	32714	32752	32675	0	37245	34627	33750	
732	0	32754	32775	32539	0	37221	34607	33735	
733	0	32816	32583	32646	0	37245	34611	33735	
734	0	32790	32683	32620	0	37216	34617	33731	
735	0	32790	32534	32590	0	37215	34614	33744	
736	0	32747	32746	32683	0	37235	34600	33750	
737	0	32873	32746	32628	0	37203	34605	33735	
738	0	32890	32608	32424	0	37216	34601	33734	
739	0	32836	32775	32598	0	37235	34607	33746	
740	0	32511	32722	32773	0	37229	34603	33731	
741	0	32634	32676	32767	0	37237	34605	33739	
742	0	32928	32604	32683	0	37207	34623	33718	
743	0	32799	32695	32775	0	37231	34629	33735	
744	0	32765	32482	32663	0	37235	34586	33741	
745	0	32822	32563	32705	0	37219	34622	33735	
746	0	32756	32576	32538	0	37203	34621	33727	
747	0	32768	32711	32571	0	37223	34623	33720	
748	0	32762	32775	32748	0	37233	34603	33766	
749	0	32744	32672	32543	0	37210	34598	33766	
750	0	32724	32699	32545	0	37217	34601	33750	
751	0	32763	32723	32508	0	37218	34625	33743	
752	0	32819	32773	32647	0	37202	34631	33763	
753	0	32722	32595	32692	0	37215	34622	33785	
754	0	32764	32736	32674	0	37217	34623	33770	
755	0	32759	32698	32571	0	37231	34574	33767	
756	0	32810	32711	32525	0	37207	34578	33730	
757	0	32765	32812	32715	0	37199	34593	33727	
758	0	32820	32736	32715	0	37221	34605	33725	
759	0	32752	32751	32663	0	37244	34615	33719	
760	0	32796	32681	32594	0	37247	34605	33725	
761	0	32762	32666	32735	0	37216	34599	33735	
762	0	32766	32644	32614	0	37202	34617	33735	
763	0	32802	32743	32692	0	37219	34611	33750	
764	0	32740	32706	32582	0	37217	34614	33751	
765	0	32718	32726	32573	0	37211	34631	33735	
766	0	32764	32730	32566	0	37229	34637	33728	
767	0	32736	32691	32674	0	37191	34631	33735	
768	0	32782	32647	32719	0	37200	34639	33734	
769	0	32681	32588	32511	0	37206	34617	33760	
770	0	32775	32710	32574	0	37185	34621	33755	
771	0	32779	32675	32641	0	37216	34612	33767	
772	0	32774	32576	32659	0	37233	34615	33756	
773	0	32768	32705	32534	0	37211	34601	33734	
774	0	32802	32769	32575	0	37225	34600	33759	
775	0	32750	32576	32667	0	37221	34584	33750	
776	0	32758	32759	32715	0	37221	34606	33751	
777	0	32850	32731	32704	0	37223	34590	33755	
778	0	32775	32552	32663	0	37207	34603	33743	
779	0	32746	32671	32686	0	37168	34597	33734	
780	0	32795	32735	32683	0	37245	34574	33734	
781	0	32750	32629	32672	0	37237	34610	33735	
782	0	32794	32769	32563	0	37217	34631	33739	
783	0	32726	32710	32731	0	37217	34627	33734	
784	0	32720	32714	32680	0	37223	34625	33735	
785	0	32795	32711	32554	0	37237	34620	33750	
786	0	32788	32582	32690	0	37211	34623	33741	
787	0	32775	32615	32719	0	37215	34614	33749	
788	0	32775	32763	32678	0	37223	34605	33751	
789	0	32761	32640	32672	0	37216	34616	33743	
790	0	32762	32647	32626	0	37219	34622	33735	
791	0	32694	32722	32646	0	37231	34597	33761	
792	0	32745	32795	32703	0	37183	34610	33735	
793	0	32728	32775	32535	0	37212	34613	33751	
794	0	32748	32693	32679	0	37204	34599	33767	
795	0	32764	32717	32727	0	37211	34617	33754	
796	0	32833	32763	32715	0	37206	34610	33754	
797	0	32768	32722	32573	0	37241	34597	33754	
798	0	32763	32694	32605	0	37214	34603	33752	
799	0	32775	32696	32619	0	37218	34597	33758	
800	0	32732	32722	32760	0	37207	34603	33747	
801	0	32793	32571	32500	0	37169	34612	33746	
802	0	32754	32762	32636	0	37213	34605	33755	
803	0	32722	32719	32582	0	37239	34607	33752	
804	0	32876	32550	32674	0	37214	34601	33753	
805	0	32761	32477	32631	0	37228	34615	33734	
806	0	32796	32727	32718	0	37219	34611	33762	
807	0	32807	32773	32607	0	37208	34605	33755	
808	0	32752	32564	32678	0	37223	34597	33755	
809	0	32775	32695	32609	0	37243	34616	33746	
810	0	32707	32719	32612	0	37247	34610	33754	
811	0	32792	32593	32663	0	37246	34611	33754	
812	0	32784	32732	32519	0	37194	34617	33745	
813	0	32752	32557	32491	0	37231	34592	33759	
814	0	32756	32715	32631	0	37206	34599	33757	
815	0	32742	32786	32519	0	37241	34605	33749	
816	0	32742	32674	32726	0	37233	34597	33750	
817	0	32729	32578	32634	0	37189	34621	33735	
818	0	32741	32570	32630	0	37220	34605	33763	
819	0	32784	32711	32683	0	37219	34610	33750	
820	0	32722	32669	32572	0	37206	34607	33758	
821	0	32806	32699	32658	0	37229	34599	33754	
822	0	32775	32659	32555	0	37239	34599	33760	
823	0	32762	32570	32577	0	37247	34603	33762	
824	0	32714	32703	32575	0	37225	34591	33758	
825	0	32754	32586	32607	0	37233	34597	33747	
826	0	32754	32711	32481	0	37219	34605	33744	
827	0	32709	32681	32723	0	37218	34611	33751	
828	0	32738	32603	32707	0	37221	34603	33750	
829	0	32699	32763	32688	0	37233	34610	33755	
830	0	32740	32605	32717	0	37197	34612	33734	
831	0	32680	32743	32666	0	37221	34603	33743	
832	0	32739	32731	32581	0	37245	34607	33751	
833	0	32787	32679	32647	0	37226	34619	33747	
834	0	32844	32697	32679	0	37231	34603	33738	
835	0	32884	32743	32431	0	37191	34617	33746	
836	0	32783	32788	32543	0	37231	34602	33746	
837	0	32548	32595	32747	0	37210	34595	33748	
838	0	32617	32601	32843	0	37226	34611	33735	
839	0	32876	32655	32566	0	37252	34607	33735	
840	0	32836	32572	32453	0	37221	34607	33746	
841	0	32760	32677	32711	0	37239	34594	33763	
842	0	32766	32775	32675	0	37233	34607	33747	
843	0	32740	32711	32605	0	37217	34613	33743	
844	0	32754	32671	32583	0	37221	34631	33723	
845	0	32736	32742	32589	0	37247	34607	33760	
846	0	32769	32611	32725	0	37229	34612	33758	
847	0	32742	32586	32664	0	37233	34597	33744	
848	0	32793	32788	32576	0	37210	34597	33760	
849	0	32769	32734	32518	0	37239	34621	33763	
850	0	32775	32702	32647	0	37231	34631	33771	
851	0	32714	32522	32610	0	37252	34607	33773	
852	0	32756	32734	32641	0	37233	34593	33768	
853	0	32775	32704	32635	0	37255	34557	33749	
854	0	32775	32571	32671	0	37247	34578	33735	
855	0	32784	32583	32575	0	37219	34602	33734	
856	0	32765	32813	32724	0	37223	34612	33735	
857	0	32764	32703	32647	0	37201	34617	33721	
858	0	32774	32774	32636	0	37226	34619	33725	
859	0	32748	32743	32743	0	37239	34607	33735	
860	0	32763	32658	32598	0	37213	34615	33753	
861	0	32762	32619	32583	0	37203	34629	33747	
862	0	32751	32617	32564	0	37229	34627	33735	
863	0	32786	32743	32504	0	37216	34631	33744	
864	0	32730	32647	32534	0	37241	34622	33735	
865	0	32771	32742	32720	0	37203	34619	33758	
866	0	32797	32751	32739	0	37214	34618	33783	
867	0	32744	32760	32729	0	37207	34621	33759	
868	0	32794	32747	32575	0	37229	34609	33763	
869	0	32733	32591	32673	0	37213	34600	33763	
870	0	32764	32571	32698	0	37229	34607	33766	
871	0	32775	32743	32672	0	37210	34574	33760	
872	0	32720	32721	32595	0	37219	34597	33755	
873	0	32782	32775	32587	0	37246	34591	33767	
874	0	32813	32738	32563	0	37208	34596	33735	
875	0	32764	32765	32660	0	37211	34591	33735	
876	0	32759	32559	32548	0	37223	34570	33735	
877	0	32768	32677	32513	0	37211	34593	33714	
878	0	32752	32775	32641	0	37211	34591	33735	
879	0	32684	32719	32804	0	37215	34609	33735	
880	0	32775	32524	32703	0	37225	34610	33747	
881	0	32736	32575	32667	0	37235	34615	33754	
882	0	32738	32767	32802	0	37207	34607	33751	
883	0	32732	32632	32647	0	37242	34606	33746	
884	0	32724	32544	32680	0	37211	34610	33731	
885	0	32774	32688	32677	0	37186	34610	33744	
886	0	32712	32562	32635	0	37191	34603	33739	
887	0	32805	32773	32692	0	37239	34605	33747	
888	0	32738	32676	32475	0	37221	34603	33759	
889	0	32760	32710	32534	0	37219	34603	33751	
890	0	32744	32573	32694	0	37211	34602	33755	
891	0	32736	32723	32658	0	37222	34605	33735	
892	0	32766	32751	32720	0	37253	34609	33748	
893	0	32762	32551	32503	0	37227	34615	33739	
894	0	32720	32663	32647	0	37215	34602	33749	
895	0	32736	32711	32662	0	37197	34607	33742	
896	0	32744	32714	32690	0	37199	34602	33747	
897	0	32726	32755	32663	0	37222	34592	33768	
898	0	32770	32551	32694	0	37229	34614	33754	
899	0	32736	32687	32659	0	37227	34600	33735	
900	0	32825	32711	32608	0	37252	34616	33751	
901	0	32824	32775	32687	0	37220	34605	33751	
902	0	32786	32775	32625	0	37199	34605	33743	
903	0	32734	32534	32674	0	37225	34611	33750	
904	0	32784	32775	32632	0	37233	34614	33740	
905	0	32783	32671	32710	0	37184	34616	33734	
906	0	32706	32555	32678	0	37222	34611	33735	
907	0	32804	32543	32559	0	37223	34605	33725	
908	0	32712	32525	32657	0	37233	34612	33734	
909	0	32778	32742	32680	0	37208	34616	33748	
910	0	32792	32748	32613	0	37229	34610	33744	
911	0	32806	32647	32662	0	37219	34594	33759	
912	0	32837	32685	32613	0	37219	34629	33743	
913	0	32756	32802	32527	0	37219	34615	33746	
914	0	32758	32691	32546	0	37207	34622	33735	
915	0	32747	32701	32698	0	37202	34607	33755	
916	0	32786	32767	32717	0	37189	34625	33743	
917	0	32797	32679	32681	0	37237	34597	33751	
918	0	32763	32736	32670	0	37228	34625	33749	
919	0	32728	32629	32569	0	37200	34631	33747	
920	0	32782	32768	32704	0	37203	34622	33755	
921	0	32781	32642	32656	0	37210	34615	33741	
922	0	32738	32679	32701	0	37218	34615	33751	
923	0	32745	32721	32736	0	37191	34615	33734	
924	0	32752	32771	32715	0	37191	34618	33730	
925	0	32769	32754	32667	0	37211	34617	33748	
926	0	32749	32655	32523	0	37239	34611	33734	
927	0	32784	32570	32679	0	37203	34600	33747	
928	0	32772	32727	32546	0	37208	34619	33735	
929	0	32694	32701	32647	0	37217	34607	33746	
930	0	32767	32759	32531	0	37220	34607	33750	
931	0	32742	32772	32610	0	37213	34616	33743	
932	0	32785	32631	32686	0	37211	34618	33735	
933	0	32842	32659	32666	0	37198	34625	33744	
934	0	32845	32694	32574	0	37211	34626	33747	
935	0	32647	32791	32709	0	37191	34637	33735	
936	0	32495	32870	32748	0	37213	34610	33745	
937	0	32761	32606	32636	0	37218	34610	33747	
938	0	32903	32560	32630	0	37215	34617	33741	
939	0	32736	32647	32732	0	37191	34613	33748	
940	0	32774	32581	32695	0	37224	34614	33756	
941	0	32824	32757	32612	0	37203	34626	33741	
942	0	32772	32535	32678	0	37204	34639	33747	
943	0	32819	32551	32526	0	37202	34627	33735	
944	0	32736	32674	32663	0	37255	34630	33750	
945	0	32799	32739	32668	0	37221	34611	33775	
946	0	32792	32662	32722	0	37203	34630	33741	
947	0	32815	32707	32555	0	37229	34640	33751	
948	0	32742	32568	32629	0	37206	34642	33766	
949	0	32768	32729	32631	0	37223	34636	33750	
950	0	32802	32721	32683	0	37211	34631	33746	
951	0	32793	32752	32811	0	37203	34599	33755	
952	0	32794	32711	32679	0	37208	34611	33710	
953	0	32770	32763	32619	0	37191	34616	33718	
954	0	32766	32526	32720	0	37206	34621	33716	
955	0	32738	32565	32775	0	37214	34611	33727	
956	0	32775	32612	32678	0	37209	34625	33723	
957	0	32811	32775	32642	0	37211	34646	33730	
958	0	32744	32670	32644	0	37187	34655	33735	
959	0	32786	32591	32671	0	37206	34631	33753	
960	0	32786	32658	32679	0	37215	34651	33744	
961	0	32790	32642	32589	0	37203	34657	33750	
962	0	32760	32567	32513	0	37223	34640	33752	
963	0	32676	32767	32542	0	37191	34662	33730	
964	0	32730	32791	32663	0	37215	34639	33751	
965	0	32733	32726	32563	0	37191	34629	33761	
966	0	32792	32663	32742	0	37203	34623	33743	
967	0	32765	32696	32594	0	37199	34643	33739	
968	0	32804	32589	32535	0	37244	34623	33747	
969	0	32760	32598	32690	0	37231	34616	33751	
970	0	32729	32739	32519	0	37203	34638	33734	
971	0	32812	32699	32592	0	37237	34619	33726	
972	0	32756	32747	32617	0	37223	34619	33739	
973	0	32753	32691	32487	0	37185	34631	33734	
974	0	32799	32639	32563	0	37183	34614	33731	
975	0	32754	32751	32702	0	37219	34631	33726	
976	0	32715	32550	32797	0	37218	34647	33718	
977	0	32762	32706	32659	0	37183	34651	33739	
978	0	32784	32562	32524	0	37213	34629	33751	
979	0	32793	32581	32508	0	37191	34636	33735	
980	0	32764	32704	32699	0	37191	34643	33723	
981	0	32762	32519	32682	0	37207	34631	33731	
982	0	32771	32685	32716	0	37213	34647	33735	
983	0	32773	32709	32754	0	37191	34627	33734	
984	0	32799	32690	32603	0	37197	34656	33728	
985	0	32793	32663	32445	0	37226	34659	33725	
986	0	32790	32775	32688	0	37252	34631	33723	
987	0	32775	32684	32775	0	37219	34642	33735	
988	0	32742	32738	32723	0	37182	34646	33735	
989	0	32746	32775	32723	0	37183	34639	33754	
990	0	32788	32550	32647	0	37231	34639	33735	
991	0	32740	32665	32707	0	37183	34648	33735	
992	0	32823	32639	32600	0	37206	34646	33735	
993	0	32770	32668	32715	0	37191	34637	33752	
994	0	32811	32711	32751	0	37216	34642	33750	
995	0	32769	32719	32475	0	37191	34647	33728	
996	0	32762	32775	32683	0	37209	34643	33735	
997	0	32752	32654	32663	0	37213	34642	33755	
998	0	32769	32578	32614	0	37203	34640	33750	
999	0	32764	32543	32775	0	37206	34646	33725	
1000	0	32775	32754	32551	0	37191	34638	33727	
1001	0	32732	32682	32660	0	37196	34631	33730	
1002	0	32720	32753	32548	0	37193	34657	33724	
1003	0	32808	32594	32626	0	37207	34642	33718	
1004	0	32755	32711	32555	0	37214	34636	33718	
1005	0	32773	32711	32510	0	37211	34659	33728	
1006	0	32712	32723	32566	0	37191	34653	33725	
1007	0	32748	32531	32695	0	37209	34646	33731	
1008	0	32816	32732	32690	0	37216	34642	33733	
1009	0	32788	32646	32495	0	37196	34647	33735	
1010	0	32804	32682	32615	0	37233	34631	33751	
1011	0	32710	32717	32632	0	37244	34637	33735	
1012	0	32813	32709	32739	0	37211	34630	33735	
1013	0	32749	32563	32645	0	37198	34642	33743	
1014	0	32800	32767	32677	0	37221	34663	33730	
1015	0	32761	32707	32623	0	37237	34651	33721	
1016	0	32760	32594	32679	0	37191	34654	33735	
1017	0	32734	32583	32757	0	37191	34651	33735	
1018	0	32799	32645	32601	0	37211	34655	33745	
1019	0	32745	32566	32677	0	37186	34631	33730	
1020	0	32775	32722	32599	0	37182	34646	33717	
1021	0	32772	32826	32696	0	37179	34642	33723	
1022	0	32768	32671	32603	0	37210	34637	33721	
1023	0	32745	32605	32775	0	37206	34653	33734	
1024	0	32793	32706	32652	0	37224	34647	33721	
1025	0	32834	32767	32595	0	37233	34641	33725	
1026	0	32820	32723	32599	0	37181	34639	33725	
1027	0	32698	32794	32636	0	37239	34658	33721	
1028	0	32448	32811	32726	0	37181	34631	33729	
1029	0	32775	32739	32486	0	37247	34630	33725	
1030	0	32930	32647	32531	0	37206	34653	33718	
1031	0	32800	32711	32622	0	37206	34623	33735	
1032	0	32746	32647	32466	0	37191	34631	33734	
1033	0	32741	32691	32647	0	37219	34642	33751	
1034	0	32771	32758	32610	0	37199	34663	33725	
1035	0	32762	32773	32535	0	37238	34655	33730	
1036	0	32762	32677	32720	0	37247	34654	33745	
1037	0	32712	32674	32642	0	37202	34655	33734	
1038	0	32711	32747	32711	0	37202	34647	33749	
1039	0	32758	32519	32539	0	37223	34637	33746	
1040	0	32775	32694	32655	0	37212	34667	33756	
1041	0	32788	32571	32719	0	37202	34643	33744	
1042	0	32813	32755	32531	0	37210	34624	33741	
1043	0	32775	32747	32698	0	37215	34607	33730	
1044	0	32707	32734	32599	0	37219	34617	33715	
1045	0	32749	32775	32563	0	37181	34631	33697	
1046	0	32790	32701	32775	0	37227	34630	33726	
1047	0	32797	32598	32603	0	37203	34642	33712	
1048	0	32773	32576	32677	0	37211	34631	33726	
1049	0	32768	32727	32621	0	37223	34627	33725	
1050	0	32790	32683	32761	0	37196	34636	33735	
1051	0	32782	32687	32590	0	37181	34669	33730	
1052	0	32775	32770	32582	0	37200	34667	33731	
1053	0	32800	32767	32716	0	37191	34674	33741	
1054	0	32775	32691	32415	0	37219	34665	33725	
1055	0	32775	32610	32763	0	37197	34648	33746	
1056	0	32800	32775	32629	0	37219	34648	33739	
1057	0	32774	32610	32551	0	37201	34647	33739	
1058	0	32839	32742	32594	0	37208	34637	33723	
1059	0	32793	32647	32695	0	37227	34642	33727	
1060	0	32784	32641	32634	0	37217	34642	33739	
1061	0	32775	32717	32609	0	37202	34619	33735	
1062	0	32796	32539	32655	0	37227	34637	33721	
1063	0	32716	32690	32487	0	37249	34623	33712	
1064	0	32810	32757	32557	0	37231	34619	33731	
1065	0	32738	32773	32725	0	37214	34599	33727	
1066	0	32752	32727	32587	0	37219	34618	33709	
1067	0	32762	32548	32466	0	37218	34631	33707	
1068	0	32756	32613	32507	0	37233	34646	33709	
1069	0	32727	32764	32617	0	37203	34650	33729	
1070	0	32760	32691	32725	0	37159	34631	33735	
1071	0	32810	32743	32670	0	37211	34639	33735	
1072	0	32806	32839	32671	0	37191	34651	33730	
1073	0	32771	32635	32687	0	37206	34631	33731	
1074	0	32747	32723	32755	0	37215	34639	33722	
1075	0	32780	32727	32666	0	37219	34637	33730	
1076	0	32746	32680	32509	0	37211	34657	33708	
1077	0	32742	32703	32547	0	37227	34643	33730	
1078	0	32736	32667	32658	0	37211	34631	33731	
1079	0	32790	32763	32583	0	37216	34631	33721	
1080	0	32793	32743	32809	0	37191	34642	33723	
1081	0	32796	32752	32694	0	37225	34625	33731	
1082	0	32792	32611	32595	0	37215	34618	33730	
1083	0	32711	32775	32700	0	37215	34617	33735	
1084	0	32806	32559	32723	0	37207	34639	33738	
1085	0	32795	32583	32745	0	37219	34623	33732	
1086	0	32764	32667	32827	0	37191	34631	33741	
1087	0	32767	32645	32578	0	37248	34613	33735	
1088	0	32774	32610	32509	0	37207	34627	33735	
1089	0	32723	32742	32583	0	37173	34631	33739	
1090	0	32802	32755	32703	0	37214	34631	33732	
1091	0	32790	32726	32672	0	37191	34621	33728	
1092	0	32810	32717	32677	0	37211	34625	33731	
1093	0	32749	32723	32775	0	37204	34622	33733	
1094	0	32742	32589	32674	0	37185	34601	33730	
1095	0	32775	32692	32775	0	37241	34619	33721	
1096	0	32775	32621	32527	0	37214	34619	33720	
1097	0	32775	32637	32715	0	37216	34613	33735	
1098	0	32760	32666	32623	0	37233	34637	33718	
1099	0	32746	32708	32527	0	37233	34618	33746	
1100	0	32750	32698	32758	0	37217	34621	33730	
1101	0	32775	32762	32613	0	37229	34627	33727	
1102	0	32702	32685	32695	0	37233	34631	33735	
1103	0	32757	32583	32589	0	37213	34624	33725	
1104	0	32814	32643	32505	0	37226	34619	33734	
1105	0	32700	32599	32823	0	37225	34631	33735	
1106	0	32748	32513	32690	0	37200	34629	33734	
1107	0	32728	32638	32583	0	37191	34615	33743	
1108	0	32745	32734	32697	0	37198	34631	33745	
1109	0	32772	32719	32575	0	37185	34630	33747	
1110	0	32805	32594	32543	0	37228	34621	33735	
1111	0	32731	32671	32602	0	37198	34617	33741	
1112	0	32786	32711	32575	0	37191	34599	33735	
1113	0	32824	32711	32708	0	37219	34631	33730	
1114	0	32690	32743	32676	0	37202	34607	33751	
1115	0	32770	32677	32685	0	37206	34627	33731	
1116	0	32744	32751	32738	0	37205	34607	33725	
1117	0	32824	32612	32622	0	37202	34621	33735	
1118	0	32876	32720	32684	0	37235	34624	33735	
1119	0	32689	32738	32705	0	37235	34614	33731	
1120	0	32490	32811	32775	0	37221	34619	33715	
1121	0	32784	32562	32736	0	37191	34631	33705	
1122	0	32877	32771	32669	0	37221	34614	33717	
1123	0	32806	32726	32775	0	37237	34621	33724	
1124	0	32728	32731	32690	0	37255	34611	33735	
1125	0	32754	32720	32528	0	37206	34627	33735	
1126	0	32775	32711	32665	0	37186	34613	33735	
1127	0	32745	32759	32670	0	37243	34627	33747	
1128	0	32832	32683	32703	0	37233	34615	33754	
1129	0	32756	32593	32603	0	37233	34623	33751	
1130	0	32743	32814	32727	0	37202	34620	33727	
1131	0	32724	32714	32634	0	37217	34623	33755	
1132	0	32756	32610	32583	0	37230	34641	33777	
1133	0	32765	32591	32668	0	37219	34635	33779	
1134	0	32818	32663	32489	0	37237	34607	33763	
1135	0	32749	32598	32674	0	37200	34583	33735	
1136	0	32770	32743	32658	0	37223	34599	33709	
1137	0	32708	32679	32666	0	37215	34613	33716	
1138	0	32775	32775	32627	0	37227	34611	33730	
1139	0	32784	32745	32591	0	37247	34615	33707	
1140	0	32781	32775	32769	0	37191	34599	33735	
1141	0	32756	32738	32694	0	37225	34599	33730	
1142	0	32812	32587	32513	0	37211	34619	33720	
1143	0	32694	32555	32727	0	37202	34607	33758	
1144	0	32822	32706	32548	0	37219	34647	33741	
1145	0	32756	32720	32563	0	37202	34626	33744	
1146	0	32754	32679	32763	0	37206	34631	33714	
1147	0	32799	32679	32647	0	37213	34655	33728	
1148	0	32768	32722	32775	0	37212	34635	33735	
1149	0	32714	32567	32490	0	37223	34643	33748	
1150	0	32734	32762	32698	0	37229	34630	33731	
1151	0	32832	32583	32698	0	37217	34610	33751	
1152	0	32769	32715	32643	0	37243	34607	33751	
1153	0	32775	32683	32641	0	37216	34599	33760	
1154	0	32771	32727	32749	0	37213	34591	33745	
1155	0	32782	32575	32641	0	37191	34605	33735	
1156	0	32804	32673	32671	0	37219	34587	33756	
1157	0	32715	32765	32590	0	37221	34605	33735	
1158	0	32772	32623	32752	0	37211	34586	33740	
1159	0	32747	32571	32594	0	37220	34599	33735	
1160	0	32754	32759	32665	0	37221	34607	33710	
1161	0	32765	32655	32597	0	37219	34609	33725	
1162	0	32788	32669	32634	0	37223	34637	33730	
1163	0	32802	32583	32672	0	37227	34607	33759	
1164	0	32786	32695	32694	0	37250	34601	33758	
1165	0	32751	32775	32611	0	37247	34619	33744	
1166	0	32788	32678	32676	0	37219	34615	33739	
1167	0	32819	32705	32483	0	37199	34619	33727	
1168	0	32796	32641	32526	0	37191	34607	33727	
1169	0	32775	32763	32609	0	37204	34619	33715	
1170	0	32758	32722	32498	0	37210	34611	33735	
1171	0	32787	32569	32605	0	37225	34614	33751	
1172	0	32768	32628	32607	0	37206	34601	33742	
1173	0	32786	32653	32754	0	37203	34603	33741	
1174	0	32784	32647	32602	0	37231	34609	33747	
1175	0	32774	32539	32624	0	37235	34611	33735	
1176	0	32768	32707	32641	0	37224	34618	33751	
1177	0	32769	32775	32583	0	37225	34597	33755	
1178	0	32800	32583	32662	0	37197	34617	33735	
1179	0	32764	32542	32522	0	37227	34605	33748	
1180	0	32804	32601	32679	0	37191	34618	33750	
1181	0	32775	32731	32719	0	37210	34604	33770	
1182	0	32699	32702	32631	0	37224	34611	33749	
1183	0	32798	32806	32580	0	37216	34620	33746	
1184	0	32752	32623	32707	0	37185	34611	33750	
1185	0	32794	32518	32487	0	37233	34607	33735	
1186	0	32775	32630	32615	0	37208	34615	33731	
1187	0	32748	32679	32719	0	37219	34608	33739	
1188	0	32796	32559	32625	0	37202	34614	33735	
1189	0	32706	32567	32638	0	37209	34598	33734	
1190	0	32774	32742	32663	0	37209	34607	33747	
1191	0	32791	32698	32666	0	37206	34615	33731	
1192	0	32760	32802	32574	0	37230	34597	33735	
1193	0	32726	32498	32702	0	37203	34599	33750	
1194	0	32790	32579	32722	0	37191	34609	33743	
1195	0	32775	32722	32665	0	37217	34603	33735	
1196	0	32720	32773	32748	0	37248	34608	33745	
1197	0	32803	32676	32689	0	37218	34619	33750	
1198	0	32796	32534	32607	0	37207	34618	33739	
1199	0	32812	32669	32611	0	37191	34603	33742	
1200	0	32812	32670	32607	0	37217	34611	33757	
1201	0	32775	32711	32751	0	37224	34621	33743	
1202	0	32723	32762	32678	0	37217	34605	33754	
1203	0	32746	32759	32523	0	37202	34603	33746	
1204	0	32784	32583	32663	0	37225	34599	33751	
1205	0	32774	32723	32541	0	37225	34594	33759	
1206	0	32708	32702	32614	0	37218	34616	33742	
1207	0	32724	32703	32775	0	37219	34600	33746	
1208	0	32744	32762	32775	0	37203	34623	33741	
1209	0	32754	32725	32726	0	37201	34599	33751	
1210	0	32764	32794	32630	0	37237	34593	33751	
1211	0	32770	32695	32746	0	37211	34595	33759	
1212	0	32723	32640	32797	0	37227	34608	33750	
1213	0	32728	32736	32719	0	37191	34603	33749	
1214	0	32812	32530	32693	0	37231	34586	33740	
1215	0	32800	32578	32682	0	37217	34610	33752	
1216	0	32868	32717	32647	0	37197	34608	33741	
1217	0	32770	32615	32706	0	37220	34603	33755	
1218	0	32488	32723	32853	0	37223	34619	33721	
1219	0	32681	32499	32615	0	37216	34622	33728	
1220	0	32892	32540	32549	0	37215	34586	33744	
1221	0	32800	32643	32596	0	37254	34592	33751	
1222	0	32762	32718	32623	0	37244	34607	33739	
1223	0	32745	32837	32595	0	37215	34613	33753	
1224	0	32795	32755	32666	0	37224	34614	33739	
1225	0	32782	32722	32583	0	37223	34627	33739	
1226	0	32803	32745	32531	0	37223	34603	33758	
1227	0	32800	32532	32647	0	37233	34607	33758	
1228	0	32759	32743	32679	0	37207	34599	33735	
1229	0	32832	32801	32663	0	37221	34607	33758	
1230	0	32729	32731	32659	0	37235	34627	33787	
1231	0	32775	32535	32536	0	37191	34626	33783	
1232	0	32775	32516	32615	0	37197	34576	33790	
1233	0	32765	32599	32725	0	37233	34575	33730	
1234	0	32738	32715	32696	0	37229	34580	33731	
1235	0	32747	32758	32641	0	37244	34575	33735	
1236	0	32724	32744	32559	0	37215	34587	33726	
1237	0	32739	32571	32711	0	37190	34592	33718	
1238	0	32741	32635	32629	0	37249	34593	33725	
1239	0	32816	32799	32653	0	37223	34605	33734	
1240	0	32801	32594	32681	0	37211	34605	33763	
1241	0	32764	32685	32691	0	37223	34618	33760	
1242	0	32758	32731	32575	0	37199	34620	33735	
1243	0	32760	32711	32682	0	37237	34619	33727	
1244	0	32760	32515	32678	0	37227	34628	33751	
1245	0	32705	32803	32671	0	37203	34623	33738	
1246	0	32770	32567	32633	0	37219	34613	33747	
1247	0	32736	32589	32711	0	37215	34619	33735	
1248	0	32672	32594	32524	0	37215	34611	33735	
1249	0	32746	32690	32515	0	37221	34605	33763	
1250	0	32766	32531	32531	0	37245	34603	33757	
1251	0	32774	32684	32646	0	37237	34593	33755	
1252	0	32792	32639	32566	0	37229	34600	33751	
1253	0	32698	32681	32682	0	37239	34597	33751	
1254	0	32754	32587	32689	0	37211	34599	33744	
1255	0	32768	32786	32559	0	37215	34575	33767	
1256	0	32704	32631	32583	0	37191	34587	33746	
1257	0	32765	32722	32766	0	37223	34579	33730	
1258	0	32796	32606	32579	0	37225	34580	33725	
1259	0	32692	32722	32637	0	37222	34617	33725	
1260	0	32767	32711	32743	0	37226	34625	33735	
1261	0	32792	32753	32698	0	37221	34626	33743	
1262	0	32804	32670	32727	0	37237	34610	33759	
1263	0	32762	32738	32528	0	37222	34619	33744	
1264	0	32724	32615	32730	0	37223	34618	33735	
1265	0	32803	32697	32733	0	37213	34603	33739	
1266	0	32772	32706	32501	0	37213	34603	33746	
1267	0	32803	32740	32532	0	37221	34621	33735	
1268	0	32791	32710	32620	0	37211	34607	33754	
1269	0	32790	32553	32488	0	37210	34611	33739	
1270	0	32806	32545	32587	0	37225	34597	33762	
1271	0	32764	32564	32625	0	37191	34589	33750	
1272	0	32759	32735	32656	0	37228	34597	33760	
1273	0	32734	32757	32834	0	37223	34603	33754	
1274	0	32748	32775	32725	0	37191	34599	33759	
1275	0	32775	32747	32562	0	37222	34609	33741	
1276	0	32775	32718	32601	0	37210	34596	33741	
1277	0	32764	32720	32688	0	37239	34609	33754	
1278	0	32764	32739	32758	0	37206	34607	33735	
1279	0	32744	32813	32760	0	37233	34601	33755	
1280	0	32755	32707	32662	0	37231	34604	33735	
1281	0	32770	32681	32723	0	37212	34623	33731	
1282	0	32784	32594	32695	0	37247	34600	33743	
1283	0	32810	32599	32608	0	37229	34609	33750	
1284	0	32788	32811	32679	0	37220	34613	33735	
1285	0	32786	32743	32610	0	37233	34596	33747	
1286	0	32770	32751	32623	0	37233	34607	33740	
1287	0	32760	32571	32647	0	37253	34605	33750	
1288	0	32808	32775	32647	0	37237	34599	33757	
1289	0	32760	32711	32527	0	37210	34587	33749	
1290	0	32731	32732	32706	0	37209	34594	33754	
1291	0	32781	32691	32711	0	37218	34613	33747	
1292	0	32775	32554	32672	0	37222	34599	33743	
1293	0	32751	32744	32675	0	37209	34590	33755	
1294	0	32801	32711	32628	0	37234	34607	33751	
1295	0	32726	32703	32662	0	37205	34603	33750	
1296	0	32756	32775	32736	0	37210	34610	33750	
1297	0	32752	32583	32659	0	37242	34592	33731	
1298	0	32812	32654	32598	0	37222	34611	33746	
1299	0	32717	32548	32535	0	37223	34613	33745	
1300	0	32775	32534	32575	0	37202	34589	33761	
1301	0	32772	32763	32617	0	37208	34607	33746	
1302	0	32742	32667	32535	0	37230	34611	33755	
1303	0	32739	32631	32460	0	37227	34596	33745	
1304	0	32750	32647	32541	0	37239	34599	33753	
1305	0	32696	32557	32558	0	37253	34595	33750	
1306	0	32762	32713	32579	0	37206	34615	33726	
1307	0	32760	32742	32567	0	37236	34603	33735	
1308	0	32754	32736	32566	0	37191	34601	33744	
1309	0	32761	32703	32605	0	37237	34604	33735	
1310	0	32761	32751	32612	0	37229	34609	33735	
1311	0	32773	32663	32561	0	37198	34601	33743	
1312	0	32767	32599	32718	0	37223	34595	33746	
1313	0	32770	32526	32694	0	37229	34578	33760	
1314	0	32773	32711	32754	0	37207	34601	33735	
1315	0	32772	32709	32727	0	37203	34595	33748	
1316	0	32794	32735	32688	0	37219	34599	33758	
1317	0	32798	32719	32625	0	37239	34605	33755	
1318	0	32722	32544	32553	0	37241	34597	33745	
1319	0	32775	32752	32523	0	37236	34607	33731	
1320	0	32731	32720	32638	0	37230	34623	33749	
1321	0	32816	32613	32678	0	37197	34599	33752	
1322	0	32731	32691	32704	0	37206	34611	33746	
1323	0	32751	32803	32739	0	37200	34599	33763	
1324	0	32775	32629	32628	0	37219	34596	33746	
1325	0	32822	32755	32734	0	37255	34597	33750	
1326	0	32782	32742	32482	0	37173	34611	33751	
1327	0	32653	32872	32747	0	37233	34605	33746	
1328	0	32520	32685	32979	0	37235	34603	33743	
1329	0	32813	32571	32658	0	37239	34588	33746	
1330	0	32825	32773	32722	0	37189	34603	33734	
1331	0	32753	32730	32579	0	37225	34592	33763	
1332	0	32768	32647	32677	0	37199	34611	33754	
1333	0	32800	32748	32601	0	37203	34629	33725	
1334	0	32760	32563	32619	0	37202	34609	33725	
1335	0	32775	32718	32583	0	37203	34627	33745	
1336	0	32750	32799	32704	0	37215	34599	33775	
1337	0	32764	32663	32662	0	37247	34603	33750	
1338	0	32754	32617	32674	0	37222	34619	33744	
1339	0	32769	32562	32623	0	37217	34636	33743	
1340	0	32782	32583	32775	0	37214	34631	33778	
1341	0	32745	32703	32711	0	37207	34626	33786	
1342	0	32754	32523	32645	0	37203	34595	33742	
1343	0	32711	32725	32768	0	37229	34577	33730	
1344	0	32816	32711	32734	0	37231	34582	33718	
1345	0	32786	32725	32717	0	37210	34601	33723	
1346	0	32790	32724	32723	0	37239	34613	33712	
1347	0	32756	32638	32658	0	37230	34585	33755	
1348	0	32793	32638	32607	0	37202	34601	33727	
1349	0	32754	32681	32637	0	37239	34595	33759	
1350	0	32762	32775	32755	0	37191	34608	33746	
1351	0	32814	32688	32653	0	37213	34611	33759	
1352	0	32775	32595	32767	0	37231	34625	33751	
1353	0	32680	32711	32577	0	37207	34625	33748	
1354	0	32760	32786	32681	0	37217	34643	33730	
1355	0	32756	32642	32594	0	37229	34607	33760	
1356	0	32837	32775	32528	0	37211	34623	33755	
1357	0	32775	32736	32681	0	37222	34614	33762	
1358	0	32784	32581	32726	0	37223	34600	33753	
1359	0	32750	32761	32662	0	37207	34607	33747	
1360	0	32804	32685	32775	0	37202	34601	33755	
1361	0	32775	32727	32711	0	37237	34603	33746	
1362	0	32803	32769	32711	0	37222	34592	33759	
1363	0	32692	32766	32608	0	37254	34587	33750	
1364	0	32748	32757	32705	0	37215	34586	33735	
1365	0	32769	32691	32621	0	37255	34578	33745	
1366	0	32752	32743	32526	0	37221	34575	33730	
1367	0	32743	32599	32567	0	37211	34582	33734	
1368	0	32789	32663	32570	0	37239	34608	33721	
1369	0	32775	32810	32731	0	37225	34611	33727	
1370	0	32775	32775	32506	0	37217	34602	33735	
1371	0	32746	32691	32691	0	37227	34613	33742	
1372	0	32704	32537	32643	0	37235	34599	33751	
1373	0	32805	32685	32689	0	37207	34605	33746	
1374	0	32694	32519	32621	0	37218	34621	33735	
1375	0	32772	32611	32443	0	37231	34611	33730	
1376	0	32766	32614	32703	0	37215	34608	33743	
1377	0	32798	32583	32573	0	37202	34607	33735	
1378	0	32762	32550	32463	0	37202	34609	33750	
1379	0	32764	32732	32511	0	37191	34603	33754	
1380	0	32741	32657	32714	0	37241	34610	33742	
1381	0	32740	32647	32517	0	37189	34592	33758	
1382	0	32724	32602	32673	0	37229	34619	33734	
1383	0	32764	32745	32524	0	37206	34605	33747	
1384	0	32775	32578	32501	0	37229	34623	33751	
1385	0	32722	32775	32717	0	37183	34617	33754	
1386	0	32770	32734	32744	0	37223	34600	33735	
1387	0	32821	32724	32673	0	37197	34591	33735	
1388	0	32832	32813	32663	0	37227	34616	33746	
1389	0	32746	32703	32626	0	37216	34627	33727	
1390	0	32760	32753	32541	0	37215	34597	33735	
1391	0	32736	32786	32550	0	37203	34601	33755	
1392	0	32775	32775	32733	0	37196	34616	33743	
1393	0	32729	32739	32743	0	37199	34624	33735	
1394	0	32741	32730	32705	0	37239	34600	33747	
1395	0	32712	32736	32538	0	37225	34599	33732	
1396	0	32726	32630	32679	0	37206	34603	33746	
1397	0	32770	32679	32731	0	37197	34607	33744	
1398	0	32775	32707	32674	0	37220	34622	33735	
1399	0	32746	32647	32743	0	37199	34606	33735	
1400	0	32770	32587	32675	0	37217	34623	33741	
1401	0	32744	32695	32509	0	37211	34619	33742	
1402	0	32772	32643	32698	0	37237	34616	33731	
1403	0	32784	32678	32660	0	37231	34599	33759	
1404	0	32768	32732	32602	0	37217	34621	33759	
1405	0	32775	32599	32549	0	37222	34611	33735	
1406	0	32752	32735	32550	0	37201	34631	33731	
1407	0	32696	32703	32517	0	37225	34610	33739	
1408	0	32800	32747	32754	0	37222	34603	33759	
1409	0	32728	32655	32502	0	37231	34631	33730	
1410	0	32786	32748	32711	0	37215	34630	33732	
1411	0	32811	32702	32758	0	37216	34627	33735	
1412	0	32807	32659	32770	0	37237	34618	33728	
1413	0	32696	32730	32718	0	37215	34623	33735	
1414	0	32842	32510	32477	0	37209	34626	33750	
1415	0	32799	32723	32479	0	37199	34597	33747	
1416	0	32773	32727	32803	0	37217	34629	33734	
1417	0	32770	32691	32503	0	37218	34624	33750	
1418	0	32739	32804	32556	0	37210	34625	33744	
1419	0	32748	32670	32657	0	37221	34623	33734	
1420	0	32768	32695	32715	0	37220	34631	33730	
1421	0	32738	32683	32576	0	37233	34623	33735	
1422	0	32786	32803	32675	0	37211	34625	33734	
1423	0	32731	32666	32643	0	37191	34625	33730	
1424	0	32762	32735	32705	0	37221	34623	33744	
1425	0	32725	32747	32739	0	37223	34631	33735	
1426	0	32748	32682	32734	0	37225	34631	33743	
1427	0	32764	32739	32711	0	37231	34608	33747	
1428	0	32768	32550	32555	0	37250	34620	33735	
1429	0	32813	32742	32566	0	37191	34631	33743	
1430	0	32779	32564	32709	0	37202	34631	33731	
1431	0	32691	32767	32594	0	37219	34631	33741	
1432	0	32814	32675	32767	0	37203	34627	33728	
1433	0	32819	32515	32486	0	37216	34617	33756	
1434	0	32828	32839	32645	0	37187	34631	33749	
1435	0	32804	32653	32655	0	37207	34630	33744	
1436	0	32676	32623	32803	0	37211	34618	33746	
1437	0	32502	32523	32827	0	37207	34631	33735	
1438	0	32808	32679	32687	0	37206	34631	33735	
1439	0	32816	32755	32634	0	37196	34629	33731	
1440	0	32838	32611	32694	0	37210	34619	33739	
1441	0	32775	32711	32594	0	37219	34623	33739	
1442	0	32775	32758	32455	0	37226	34630	33734	
1443	0	32765	32767	32621	0	37202	34631	33730	
1444	0	32742	32786	32627	0	37206	34619	33743	
1445	0	32770	32805	32722	0	37219	34633	33763	
1446	0	32773	32675	32729	0	37227	34640	33750	
1447	0	32816	32754	32617	0	37252	34637	33735	
1448	0	32758	32754	32627	0	37223	34650	33746	
1449	0	32751	32679	32567	0	37233	34661	33754	
1450	0	32851	32602	32717	0	37229	34617	33775	
1451	0	32781	32671	32654	0	37211	34620	33758	
1452	0	32768	32688	32656	0	37186	34614	33727	
1453	0	32792	32659	32557	0	37216	34602	33719	
1454	0	32752	32670	32599	0	37216	34605	33725	
1455	0	32759	32749	32746	0	37199	34626	33710	
1456	0	32774	32736	32658	0	37218	34646	33717	
1457	0	32719	32701	32673	0	37197	34624	33732	
1458	0	32772	32765	32673	0	37221	34628	33743	
1459	0	32749	32775	32711	0	37224	34623	33740	
1460	0	32768	32743	32558	0	37219	34649	33741	
1461	0	32775	32759	32549	0	37235	34638	33735	
1462	0	32765	32745	32759	0	37191	34667	33734	
1463	0	32775	32738	32695	0	37202	34651	33735	
1464	0	32812	32722	32605	0	37207	34651	33735	
1465	0	32716	32747	32731	0	37210	34649	33744	
1466	0	32793	32806	32567	0	37211	34623	33759	
1467	0	32758	32603	32671	0	37183	34651	33744	
1468	0	32764	32538	32499	0	37185	34650	33735	
1469	0	32742	32739	32687	0	37206	34631	33741	
1470	0	32752	32739	32692	0	37211	34631	33731	
1471	0	32775	32816	32647	0	37221	34616	33728	
1472	0	32772	32607	32647	0	37206	34621	33735	
1473	0	32792	32686	32687	0	37216	34631	33731	
1474	0	32794	32567	32622	0	37187	34627	33725	
1475	0	32775	32727	32743	0	37199	34615	33707	
1476	0	32763	32669	32731	0	37238	34627	33728	
1477	0	32773	32678	32491	0	37231	34647	33718	
1478	0	32760	32733	32656	0	37204	34639	33728	
1479	0	32706	32681	32644	0	37210	34643	33735	
1480	0	32728	32642	32638	0	37219	34650	33734	
1481	0	32762	32679	32640	0	37204	34648	33731	
1482	0	32794	32727	32638	0	37210	34627	33747	
1483	0	32738	32543	32549	0	37188	34636	33730	
1484	0	32775	32729	32647	0	37216	34640	33741	
1485	0	32698	32631	32555	0	37215	34640	33735	
1486	0	32832	32775	32558	0	37196	34643	33723	
1487	0	32672	32679	32610	0	37239	34642	33745	
1488	0	32818	32682	32629	0	37189	34631	33732	
1489	0	32712	32676	32655	0	37173	34646	33750	
1490	0	32694	32707	32711	0	37200	34631	33739	
1491	0	32768	32525	32629	0	37180	34643	33730	
1492	0	32802	32739	32667	0	37175	34637	33747	
1493	0	32775	32620	32606	0	37198	34653	33735	
1494	0	32796	32681	32677	0	37210	34644	33730	
1495	0	32715	32711	32758	0	37183	34631	33743	
1496	0	32773	32563	32638	0	37211	34631	33741	
1497	0	32775	32757	32711	0	37217	34651	33731	
1498	0	32740	32679	32622	0	37208	34639	33729	
1499	0	32803	32739	32669	0	37186	34631	33735	
1500	0	32816	32802	32675	0	37225	34643	33727	
1501	0	32704	32663	32486	0	37219	34657	33731	
1502	0	32805	32690	32662	0	37231	34640	33733	
1503	0	32764	32815	32702	0	37237	34627	33735	
1504	0	32747	32687	32746	0	37239	34651	33726	
1505	0	32742	32602	32637	0	37191	34642	33727	
1506	0	32796	32594	32499	0	37206	34642	33721	
1507	0	32784	32711	32580	0	37227	34652	33723	
1508	0	32803	32710	32631	0	37191	34644	33735	
1509	0	32717	32647	32679	0	37223	34639	33741	
1510	0	32772	32775	32691	0	37191	34633	33733	
1511	0	32696	32802	32545	0	37191	34637	33744	
1512	0	32760	32688	32634	0	37203	34631	33746	
1513	0	32728	32775	32567	0	37207	34648	33735	
1514	0	32736	32690	32635	0	37207	34636	33741	
1515	0	32768	32731	32694	0	37191	34648	33747	
1516	0	32782	32754	32660	0	37191	34631	33739	
1517	0	32760	32775	32634	0	37205	34639	33735	
1518	0	32832	32679	32627	0	37167	34639	33747	
1519	0	32732	32694	32671	0	37204	34637	33730	
1520	0	32784	32719	32555	0	37197	34639	33742	
1521	0	32728	32751	32738	0	37209	34635	33728	
1522	0	32698	32755	32511	0	37207	34654	33731	
1523	0	32728	32671	32635	0	37207	34643	33719	
1524	0	32790	32658	32672	0	37203	34647	33726	
1525	0	32798	32574	32491	0	37221	34646	33721	
1526	0	32736	32707	32711	0	37215	34639	33723	
1527	0	32758	32583	32599	0	37206	34625	33727	
1528	0	32759	32715	32701	0	37222	34627	33727	
1529	0	32775	32529	32664	0	37214	34641	33717	
1530	0	32751	32598	32687	0	37188	34657	33715	
1531	0	32740	32598	32722	0	37191	34621	33735	
1532	0	32770	32549	32631	0	37213	34650	33725	
1533	0	32812	32583	32600	0	37189	34648	33721	
1534	0	32813	32677	32799	0	37227	34640	33732	
1535	0	32617	32775	32656	0	37227	34631	33735	
1536	0	32579	32558	32902	0	37191	34631	33715	
1537	0	32867	32687	32595	0	37231	34629	33730	
1538	0	32818	32627	32589	0	37239	34627	33742	
1539	0	32761	32526	32522	0	37215	34649	33734	
1540	0	32726	32699	32729	0	37235	34637	33725	
1541	0	32796	32534	32637	0	37223	34659	33727	
1542	0	32791	32518	32571	0	37191	34647	33728	
1543	0	32762	32647	32668	0	37202	34642	33743	
1544	0	32819	32674	32751	0	37227	34631	33741	
1545	0	32738	32623	32686	0	37199	34631	33747	
1546	0	32803	32731	32623	0	37196	34631	33731	
1547	0	32724	32716	32621	0	37211	34648	33735	
1548	0	32774	32704	32607	0	37239	34663	33746	
1549	0	32752	32647	32671	0	37215	34631	33746	
1550	0	32805	32753	32549	0	37199	34613	33735	
1551	0	32769	32735	32687	0	37222	34582	33740	
1552	0	32753	32615	32512	0	37202	34612	33707	
1553	0	32732	32759	32695	0	37215	34627	33697	
1554	0	32824	32762	32643	0	37208	34631	33710	
1555	0	32756	32562	32583	0	37210	34624	33727	
1556	0	32746	32751	32510	0	37208	34623	33723	
1557	0	32711	32633	32663	0	37191	34637	33727	
1558	0	32747	32704	32605	0	37235	34640	33735	
1559	0	32721	32611	32681	0	37215	34679	33715	
1560	0	32800	32702	32713	0	37210	34649	33734	
1561	0	32782	32786	32616	0	37219	34654	33734	
1562	0	32731	32729	32719	0	37223	34651	33735	
1563	0	32713	32728	32612	0	37209	34631	33730	
1564	0	32764	32761	32645	0	37199	34643	33724	
1565	0	32760	32523	32672	0	37198	34627	33730	
1566	0	32755	32739	32670	0	37204	34629	33734	
1567	0	32736	32762	32725	0	37212	34629	33735	
1568	0	32775	32711	32664	0	37185	34619	33729	
1569	0	32741	32772	32617	0	37221	34603	33732	
1570	0	32817	32715	32687	0	37223	34607	33733	
1571	0	32786	32562	32679	0	37211	34621	33735	
1572	0	32768	32608	32715	0	37217	34611	33728	
1573	0	32775	32609	32509	0	37191	34614	33719	
1574	0	32748	32617	32775	0	37223	34591	33709	
1575	0	32708	32717	32719	0	37219	34609	33711	
1576	0	32792	32590	32621	0	37226	34636	33703	
1577	0	32794	32687	32747	0	37191	34631	33715	
1578	0	32862	32771	32578	0	37221	34633	33735	
1579	0	32746	32731	32540	0	37224	34616	33731	
1580	0	32754	32669	32655	0	37223	34623	33734	
1581	0	32749	32695	32499	0	37215	34615	33735	
1582	0	32841	32775	32730	0	37206	34648	33707	
1583	0	32754	32658	32623	0	37227	34631	33713	
1584	0	32818	32765	32766	0	37223	34624	33715	
1585	0	32728	32495	32547	0	37211	34631	33731	
1586	0	32797	32732	32630	0	37229	34630	33744	
1587	0	32714	32768	32749	0	37191	34631	33749	
1588	0	32796	32753	32719	0	37235	34607	33734	
1589	0	32811	32747	32761	0	37221	34610	33735	
1590	0	32811	32774	32594	0	37204	34600	33746	
1591	0	32799	32763	32596	0	37203	34621	33735	
1592	0	32714	32724	32619	0	37202	34621	33734	
1593	0	32723	32729	32641	0	37215	34623	33735	
1594	0	32790	32684	32605	0	37198	34623	33741	
1595	0	32720	32667	32631	0	37228	34611	33730	
1596	0	32795	32742	32560	0	37223	34624	33726	
1597	0	32748	32477	32742	0	37231	34618	33751	
1598	0	32751	32797	32668	0	37218	34611	33730	
1599	0	32784	32731	32547	0	37216	34619	33735	
1600	0	32775	32631	32479	0	37182	34618	33727	
1601	0	32690	32694	32571	0	37213	34615	33739	
1602	0	32784	32634	32659	0	37219	34615	33706	
1603	0	32768	32623	32686	0	37191	34623	33719	
1604	0	32775	32525	32493	0	37231	34594	33747	
1605	0	32717	32553	32530	0	37215	34619	33735	
1606	0	32731	32722	32660	0	37191	34620	33719	
1607	0	32791	32654	32733	0	37202	34628	33719	
1608	0	32775	32757	32555	0	37197	34605	33735	
1609	0	32756	32743	32699	0	37216	34613	33721	
1610	0	32775	32703	32609	0	37215	34600	33743	
1611	0	32804	32745	32581	0	37204	34611	33762	
1612	0	32718	32704	32552	0	37206	34623	33739	
1613	0	32708	32820	32655	0	37210	34619	33735	
1614	0	32791	32732	32655	0	37224	34615	33728	
1615	0	32732	32599	32550	0	37223	34614	33722	
1616	0	32765	32668	32690	0	37232	34623	33744	
1617	0	32787	32742	32740	0	37211	34619	33735	
1618	0	32760	32698	32484	0	37191	34607	33744	
1619	0	32775	32768	32595	0	37215	34615	33739	
1620	0	32720	32736	32519	0	37235	34642	33723	
1621	0	32801	32718	32685	0	37198	34595	33742	
1622	0	32742	32763	32677	0	37231	34619	33735	
1623	0	32754	32558	32487	0	37213	34593	33747	
1624	0	32730	32726	32690	0	37218	34607	33746	
1625	0	32741	32611	32492	0	37222	34607	33735	
1626	0	32775	32503	32705	0	37191	34615	33735	
1627	0	32728	32694	32617	0	37223	34615	33735	
1628	0	32706	32731	32646	0	37229	34611	33735	
1629	0	32758	32735	32758	0	37225	34609	33731	
1630	0	32902	32711	32659	0	37222	34614	33742	
1631	0	32841	32742	32525	0	37203	34611	33725	
1632	0	32773	32644	32691	0	37215	34619	33730	
1633	0	32478	32563	32714	0	37202	34590	33744	
1634	0	32772	32635	32712	0	37225	34617	33727	
1635	0	32872	32670	32407	0	37206	34627	33730	
1636	0	32808	32815	32595	0	37227	34605	33744	
1637	0	32716	32615	32767	0	37233	34613	33735	
1638	0	32820	32626	32635	0	37208	34614	33757	
1639	0	32794	32735	32675	0	37191	34619	33735	
1640	0	32775	32723	32666	0	37191	34619	33739	
1641	0	32771	32635	32690	0	37211	34624	33741	
1642	0	32738	32553	32753	0	37217	34597	33766	
1643	0	32730	32763	32630	0	37215	34603	33730	
1644	0	32724	32771	32656	0	37199	34637	33735	
1645	0	32736	32658	32499	0	37231	34636	33754	
1646	0	32744	32686	32623	0	37216	34621	33772	
1647	0	32773	32580	32450	0	37218	34599	33775	
1648	0	32824	32676	32647	0	37224	34590	33767	
1649	0	32804	32698	32668	0	37224	34572	33726	
1650	0	32757	32719	32709	0	37207	34603	33713	
1651	0	32745	32561	32681	0	37215	34605	33728	
1652	0	32742	32531	32617	0	37223	34604	33734	
1653	0	32770	32775	32607	0	37233	34619	33728	
1654	0	32766	32678	32715	0	37202	34620	33731	
1655	0	32721	32624	32631	0	37213	34614	33719	
1656	0	32789	32672	32604	0	37203	34618	33747	
1657	0	32739	32673	32692	0	37243	34625	33745	
1658	0	32775	32775	32665	0	37206	34631	33745	
1659	0	32740	32703	32706	0	37197	34615	33735	
1660	0	32786	32718	32652	0	37243	34631	33734	
1661	0	32762	32775	32717	0	37216	34625	33743	
1662	0	32757	32629	32690	0	37223	34629	33747	
1663	0	32742	32674	32745	0	37196	34605	33750	
1664	0	32745	32532	32670	0	37203	34601	33752	
1665	0	32811	32763	32607	0	37222	34601	33751	
1666	0	32722	32647	32561	0	37225	34597	33759	
1667	0	32774	32606	32503	0	37198	34587	33754	
1668	0	32769	32512	32542	0	37245	34595	33758	
1669	0	32742	32766	32557	0	37231	34587	33736	
1670	0	32752	32735	32742	0	37245	34603	33740	
1671	0	32764	32569	32788	0	37215	34598	33740	
1672	0	32774	32666	32702	0	37202	34587	33746	
1673	0	32769	32771	32626	0	37219	34595	33715	
1674	0	32782	32553	32589	0	37225	34607	33711	
1675	0	32744	32659	32583	0	37229	34623	33730	
1676	0	32771	32809	32675	0	37223	34627	33725	
1677	0	32775	32766	32753	0	37218	34627	33754	
1678	0	32752	32807	32658	0	37219	34607	33762	
1679	0	32761	32738	32669	0	37217	34624	33735	
1680	0	32823	32630	32476	0	37226	34617	33725	
1681	0	32709	32678	32686	0	37203	34619	33729	
1682	0	32744	32673	32736	0	37206	34615	33728	
1683	0	32748	32791	32631	0	37211	34613	33731	
1684	0	32771	32699	32549	0	37245	34607	33750	
1685	0	32756	32647	32685	0	37221	34610	33734	
1686	0	32754	32646	32666	0	37209	34601	33748	
1687	0	32788	32645	32490	0	37191	34602	33741	
1688	0	32769	32742	32558	0	37214	34595	33757	
1689	0	32765	32562	32794	0	37229	34610	33753	
1690	0	32745	32740	32615	0	37199	34608	33746	
1691	0	32755	32707	32617	0	37225	34593	33751	
1692	0	32775	32711	32621	0	37216	34593	33739	
1693	0	32799	32534	32711	0	37241	34605	33751	
1694	0	32828	32603	32658	0	37210	34599	33746	
1695	0	32760	32635	32538	0	37217	34608	33759	
1696	0	32811	32754	32723	0	37229	34619	33740	
1697	0	32772	32797	32675	0	37227	34623	33735	
1698	0	32810	32821	32581	0	37227	34608	33743	
1699	0	32740	32763	32598	0	37227	34607	33735	
1700	0	32786	32552	32470	0	37218	34612	33743	
1701	0	32730	32740	32756	0	37207	34587	33743	
1702	0	32850	32772	32499	0	37219	34598	33741	
1703	0	32742	32539	32647	0	37242	34599	33739	
1704	0	32801	32751	32731	0	37237	34597	33747	
1705	0	32765	32562	32647	0	37197	34599	33754	
1706	0	32770	32674	32746	0	37231	34600	33743	
1707	0	32750	32644	32726	0	37225	34613	33746	
1708	0	32720	32791	32620	0	37233	34600	33751	
1709	0	32739	32679	32607	0	37228	34595	33755	
1710	0	32802	32718	32647	0	37237	34614	33743	
1711	0	32736	32745	32695	0	37223	34611	33746	
1712	0	32818	32730	32578	0	37239	34597	33748	
1713	0	32686	32775	32637	0	37229	34600	33739	
1714	0	32752	32793	32710	0	37221	34603	33762	
1715	0	32717	32756	32606	0	37216	34614	33735	
1716	0	32818	32561	32578	0	37209	34603	33751	
1717	0	32720	32679	32702	0	37230	34593	33751	
1718	0	32756	32694	32481	0	37191	34598	33742	
1719	0	32802	32707	32658	0	37218	34610	33735	
1720	0	32760	32553	32742	0	37225	34619	33745	
1721	0	32744	32687	32597	0	37229	34605	33750	
1722	0	32720	32695	32742	0	37212	34617	33743	
1723	0	32732	32722	32628	0	37223	34605	33734	
1724	0	32758	32746	32675	0	37216	34601	33739	
1725	0	32736	32514	32813	0	37220	34600	33751	
1726	0	32837	32604	32613	0	37219	34602	33750	
1727	0	32730	32742	32574	0	37203	34601	33752	
1728	0	32773	32769	32675	0	37217	34601	33740	
1729	0	32794	32751	32635	0	37203	34599	33747	
1730	0	32765	32517	32731	0	37219	34607	33749	
1731	0	32768	32513	32717	0	37229	34595	33742	
1732	0	32836	32555	32669	0	37237	34611	33746	
1733	0	32836	32563	32519	0	37223	34597	33754	
1734	0	32764	32647	32546	0	37191	34615	33734	
1735	0	32480	32811	32823	0	37218	34607	33735	
1736	0	32738	32694	32553	0	37225	34603	33719	
1737	0	32879	32583	32589	0	37211	34590	33739	
1738	0	32764	32647	32675	0	37211	34599	33754	
1739	0	32742	32756	32575	0	37250	34619	33745	
1740	0	32792	32799	32687	0	37216	34595	33744	
1741	0	32796	32682	32475	0	37221	34615	33735	
1742	0	32705	32775	32631	0	37202	34616	33728	
1743	0	32738	32704	32551	0	37237	34592	33751	
1744	0	32790	32566	32602	0	37213	34591	33740	
1745	0	32720	32720	32615	0	37206	34572	33751	
1746	0	32759	32563	32768	0	37203	34610	33735	
1747	0	32768	32544	32509	0	37216	34650	33759	
1748	0	32784	32661	32711	0	37230	34639	33767	
1749	0	32738	32711	32719	0	37214	34581	33758	
1750	0	32736	32634	32686	0	37221	34572	33741	
1751	0	32787	32754	32562	0	37217	34576	33734	
1752	0	32789	32562	32671	0	37217	34597	33703	
1753	0	32775	32687	32712	0	37240	34608	33735	
1754	0	32762	32766	32666	0	37223	34599	33725	
1755	0	32775	32766	32511	0	37199	34613	33727	
1756	0	32732	32739	32731	0	37231	34612	33726	
1757	0	32748	32711	32674	0	37242	34590	33744	
1758	0	32806	32628	32635	0	37247	34623	33728	
1759	0	32745	32725	32690	0	37206	34628	33746	
1760	0	32812	32617	32550	0	37191	34631	33744	
1761	0	32720	32727	32541	0	37202	34627	33743	
1762	0	32745	32775	32647	0	37191	34610	33755	
1763	0	32764	32698	32601	0	37199	34625	33747	
1764	0	32763	32726	32680	0	37206	34615	33760	
1765	0	32741	32647	32739	0	37199	34605	33775	
1766	0	32820	32727	32749	0	37215	34600	33763	
1767	0	32833	32711	32685	0	37217	34587	33763	
1768	0	32760	32713	32727	0	37230	34591	33758	
1769	0	32740	32707	32702	0	37219	34599	33752	
1770	0	32771	32527	32655	0	37225	34585	33741	
1771	0	32743	32794	32538	0	37241	34605	33735	
1772	0	32775	32623	32703	0	37209	34574	33734	
1773	0	32749	32677	32613	0	37208	34576	33741	
1774	0	32806	32565	32654	0	37215	34576	33727	
1775	0	32770	32692	32534	0	37239	34585	33728	
1776	0	32775	32775	32715	0	37235	34610	33719	
1777	0	32760	32647	32655	0	37217	34614	33725	
1778	0	32775	32587	32662	0	37191	34622	33759	
1779	0	32738	32679	32534	0	37223	34611	33749	
1780	0	32796	32627	32727	0	37229	34627	33732	
1781	0	32752	32755	32538	0	37251	34617	33754	
1782	0	32759	32557	32656	0	37202	34605	33739	
1783	0	32809	32735	32754	0	37199	34625	33725	
1784	0	32803	32801	32695	0	37202	34614	33742	
1785	0	32794	32749	32695	0	37206	34618	33732	
1786	0	32775	32551	32502	0	37233	34621	33759	
1787	0	32752	32531	32471	0	37215	34619	33742	
1788	0	32738	32725	32501	0	37221	34608	33735	
1789	0	32720	32646	32775	0	37224	34603	33744	
1790	0	32769	32761	32647	0	37255	34603	33763	
1791	0	32726	32647	32617	0	37230	34618	33744	
1792	0	32774	32786	32679	0	37191	34602	33759	
1793	0	32724	32727	32497	0	37197	34611	33739	
1794	0	32741	32698	32679	0	37235	34611	33721	
1795	0	32783	32677	32640	0	37187	34606	33751	
1796	0	32783	32723	32706	0	37225	34601	33746	
1797	0	32745	32835	32607	0	37241	34603	33747	
1798	0	32742	32527	32719	0	37217	34605	33735	
1799	0	32794	32696	32701	0	37225	34605	33753	
1800	0	32768	32711	32663	0	37213	34613	33735	
1801	0	32766	32711	32726	0	37239	34613	33730	
1802	0	32811	32576	32671	0	37189	34601	33730	
1803	0	32715	32753	32711	0	37203	34600	33732	
1804	0	32789	32663	32688	0	37227	34607	33735	
1805	0	32731	32737	32725	0	37191	34609	33730	
1806	0	32760	32691	32721	0	37219	34603	33735	
1807	0	32792	32603	32726	0	37229	34621	33732	
1808	0	32773	32553	32614	0	37233	34610	33743	
1809	0	32751	32615	32611	0	37239	34616	33738	
1810	0	32782	32547	32598	0	37190	34623	33750	
1811	0	32775	32796	32634	0	37223	34623	33735	
1812	0	32745	32578	32727	0	37213	34627	33750	
1813	0	32744	32707	32461	0	37204	34631	33735	
1814	0	32743	32751	32549	0	37227	34619	33735	
1815	0	32775	32694	32707	0	37215	34615	33738	
1816	0	32804	32687	32561	0	37203	34607	33735	
1817	0	32740	32666	32587	0	37214	34623	33745	
1818	0	32762	32473	32634	0	37217	34611	33747	
1819	0	32784	32775	32667	0	37230	34627	33730	
1820	0	32768	32708	32625	0	37183	34601	33754	
1821	0	32752	32683	32653	0	37227	34597	33743	
1822	0	32812	32807	32582	0	37215	34617	33734	
1823	0	32739	32647	32715	0	37206	34613	33743	
1824	0	32772	32775	32507	0	37223	34623	33751	
1825	0	32704	32642	32526	0	37223	34621	33735	
1826	0	32812	32623	32771	0	37233	34627	33725	
1827	0	32782	32615	32642	0	37239	34613	33723	
1828	0	32808	32764	32677	0	37224	34623	33734	
1829	0	32736	32580	32677	0	37191	34619	33725	
1830	0	32743	32694	32695	0	37207	34623	33735	
1831	0	32742	32763	32611	0	37196	34619	33726	
1832	0	32775	32553	32771	0	37209	34631	33720	
1833	0	32744	32788	32642	0	37235	34615	33750	
1834	0	32694	32766	32610	0	37217	34608	33759	
1835	0	32795	32683	32694	0	37206	34615	33741	
1836	0	32900	32698	32630	0	37219	34607	33743	
1837	0	32769	32613	32634	0	37227	34626	33739	
1838	0	32600	32818	32738	0	37241	34609	33743	
1839	0	32615	32587	32755	0	37223	34627	33721	
1840	0	32870	32775	32666	0	37217	34590	33735	
1841	0	32840	32504	32547	0	37226	34605	33742	
1842	0	32758	32601	32708	0	37191	34611	33748	
1843	0	32790	32628	32583	0	37208	34629	33735	
1844	0	32808	32743	32707	0	37219	34630	33725	
1845	0	32760	32662	32548	0	37223	34646	33712	
1846	0	32740	32694	32621	0	37223	34623	33739	
1847	0	32773	32617	32647	0	37227	34629	33750	
1848	0	32758	32553	32575	0	37219	34627	33751	
1849	0	32775	32698	32721	0	37211	34620	33730	
1850	0	32814	32717	32571	0	37237	34631	33739	
1851	0	32800	32530	32615	0	37216	34651	33770	
1852	0	32814	32707	32635	0	37206	34639	33759	
1853	0	32766	32751	32681	0	37223	34611	33740	
1854	0	32792	32758	32690	0	37215	34603	33723	
1855	0	32760	32694	32515	0	37215	34594	33712	
1856	0	32740	32547	32679	0	37215	34611	33710	
1857	0	32754	32647	32663	0	37198	34617	33725	
1858	0	32792	32790	32701	0	37185	34627	33725	
1859	0	32724	32679	32456	0	37211	34631	33719	
1860	0	32860	32603	32676	0	37191	34615	33731	
1861	0	32734	32756	32632	0	37237	34657	33740	
1862	0	32775	32758	32667	0	37191	34649	33721	
1863	0	32775	32743	32556	0	37174	34663	33731	
1864	0	32765	32653	32718	0	37191	34663	33728	
1865	0	32786	32770	32682	0	37206	34661	33735	
1866	0	32784	32567	32628	0	37165	34654	33717	
1867	0	32771	32694	32630	0	37191	34639	33734	
1868	0	32838	32807	32719	0	37239	34654	33734	
1869	0	32731	32541	32636	0	37210	34643	33730	
1870	0	32786	32691	32743	0	37223	34625	33747	
1871	0	32713	32729	32701	0	37223	34631	33744	
1872	0	32838	32701	32647	0	37197	34622	33725	
1873	0	32852	32644	32569	0	37210	34610	33735	
1874	0	32747	32597	32710	0	37219	34619	33716	
1875	0	32775	32771	32544	0	37209	34623	33727	
1876	0	32799	32661	32645	0	37191	34611	33725	
1877	0	32818	32679	32631	0	37237	34617	33727	
1878	0	32780	32643	32674	0	37229	34624	33723	
1879	0	32790	32705	32644	0	37229	34637	33734	
1880	0	32793	32583	32603	0	37226	34631	33731	
1881	0	32745	32671	32656	0	37208	34646	33725	
1882	0	32788	32700	32626	0	37223	34642	33731	
1883	0	32741	32747	32601	0	37225	34639	33735	
1884	0	32763	32535	32730	0	37202	34624	33727	
1885	0	32730	32723	32638	0	37233	34629	33730	
1886	0	32719	32711	32581	0	37203	34656	33714	
1887	0	32775	32535	32761	0	37239	34646	33734	
1888	0	32800	32562	32550	0	37199	34639	33723	
1889	0	32718	32595	32563	0	37196	34629	33752	
1890	0	32771	32775	32495	0	37223	34629	33755	
1891	0	32715	32811	32521	0	37191	34631	33724	
1892	0	32786	32514	32662	0	37218	34642	33730	
1893	0	32750	32579	32598	0	37215	34633	33747	
1894	0	32701	32589	32707	0	37221	34631	33735	
1895	0	32748	32775	32734	0	37214	34646	33731	
1896	0	32756	32670	32546	0	37222	34650	33735	
1897	0	32710	32647	32704	0	37213	34633	33746	
1898	0	32682	32731	32677	0	37213	34637	33744	
1899	0	32761	32739	32598	0	37229	34631	33735	
1900	0	32806	32746	32662	0	37229	34631	33731	
1901	0	32732	32553	32672	0	37200	34637	33719	
1902	0	32742	32799	32791	0	37225	34642	33718	
1903	0	32773	32559	32551	0	37191	34631	33721	
1904	0	32848	32739	32726	0	37228	34636	33730	
1905	0	32804	32561	32577	0	37185	34631	33727	
1906	0	32722	32752	32645	0	37177	34625	33714	
1907	0	32774	32775	32734	0	37207	34631	33725	
1908	0	32752	32732	32538	0	37206	34629	33723	
1909	0	32802	32643	32764	0	37202	34642	33714	
1910	0	32745	32551	32744	0	37211	34622	33727	
1911	0	32744	32605	32530	0	37223	34633	33725	
1912	0	32736	32739	32749	0	37229	34631	33733	
1913	0	32765	32702	32673	0	37211	34636	33718	
1914	0	32751	32739	32637	0	37214	34651	33719	
1915	0	32793	32635	32621	0	37191	34617	33746	
1916	0	32756	32711	32691	0	37215	34629	33728	
1917	0	32823	32658	32674	0	37208	34642	33707	
1918	0	32708	32709	32647	0	37191	34636	33735	
1919	0	32796	32798	32662	0	37214	34639	33747	
1920	0	32746	32678	32727	0	37181	34643	33725	
1921	0	32780	32757	32742	0	37202	34651	33721	
1922	0	32785	32743	32703	0	37223	34630	33731	
1923	0	32692	32767	32579	0	37223	34631	33724	
1924	0	32808	32548	32728	0	37248	34650	33730	
1925	0	32795	32607	32637	0	37217	34642	33727	
1926	0	32754	32520	32723	0	37191	34620	33731	
1927	0	32764	32738	32711	0	37235	34639	33727	
1928	0	32717	32775	32591	0	37223	34642	33723	
1929	0	32775	32606	32717	0	37219	34631	33728	
1930	0	32734	32730	32575	0	37211	34657	33709	
1931	0	32764	32806	32613	0	37229	34623	33723	
1932	0	32828	32775	32522	0	37211	34631	33731	
1933	0	32891	32613	32597	0	37219	34621	33727	
1934	0	32754	32751	32830	0	37209	34637	33743	
1935	0	32552	32887	32827	0	37213	34640	33734	
1936	0	32688	32658	32705	0	37215	34631	33720	
1937	0	32896	32571	32569	0	37179	34627	33711	
1938	0	32850	32745	32647	0	37196	34623	33723	
1939	0	32822	32691	32550	0	37207	34627	33728	
1940	0	32784	32711	32699	0	37206	34631	33735	
1941	0	32770	32714	32562	0	37210	34621	33735	
1942	0	32791	32575	32525	0	37191	34639	33715	
1943	0	32762	32647	32628	0	37235	34637	33747	
1944	0	32786	32757	32739	0	37207	34631	33735	
1945	0	32743	32498	32694	0	37223	34631	33730	
1946	0	32759	32735	32765	0	37193	34647	33719	
1947	0	32730	32765	32543	0	37219	34649	33735	
1948	0	32745	32711	32694	0	37245	34659	33750	
1949	0	32734	32743	32583	0	37199	34629	33750	
1950	0	32752	32683	32600	0	37237	34605	33721	
1951	0	32818	32711	32534	0	37221	34591	33725	
1952	0	32774	32742	32618	0	37183	34605	33700	
1953	0	32726	32507	32678	0	37191	34605	33715	
1954	0	32762	32580	32715	0	37245	34625	33702	
1955	0	32739	32682	32733	0	37237	34612	33727	
1956	0	32747	32571	32543	0	37221	34618	33730	
1957	0	32802	32559	32671	0	37225	34623	33719	
1958	0	32770	32679	32679	0	37231	34635	33728	
1959	0	32765	32679	32572	0	37221	34629	33735	
1960	0	32793	32674	32500	0	37247	34626	33732	
1961	0	32662	32699	32551	0	37207	34631	33742	
1962	0	32740	32818	32507	0	37191	34651	33728	
1963	0	32760	32750	32678	0	37203	34631	33725	
1964	0	32795	32562	32662	0	37198	34647	33728	
1965	0	32807	32791	32749	0	37207	34623	33745	
1966	0	32789	32535	32699	0	37202	34627	33743	
1967	0	32773	32747	32748	0	37225	34611	33744	
1968	0	32740	32698	32600	0	37203	34623	33734	
1969	0	32698	32731	32658	0	37215	34603	33744	
1970	0	32725	32519	32622	0	37216	34601	33730	
1971	0	32754	32838	32549	0	37215	34619	33739	
1972	0	32756	32751	32762	0	37223	34615	33734	
1973	0	32752	32663	32630	0	37185	34613	33727	
1974	0	32736	32612	32553	0	37211	34593	33722	
1975	0	32759	32731	32723	0	37225	34610	33714	
1976	0	32731	32775	32675	0	37216	34638	33721	
1977	0	32738	32611	32727	0	37213	34631	33725	
1978	0	32751	32789	32623	0	37207	34623	33741	
1979	0	32741	32742	32791	0	37219	34627	33730	
1980	0	32805	32721	32711	0	37211	34621	33723	
1981	0	32764	32791	32602	0	37211	34622	33735	
1982	0	32794	32591	32523	0	37237	34608	33737	
1983	0	32785	32705	32798	0	37232	34621	33715	
1984	0	32766	32671	32736	0	37237	34623	33723	
1985	0	32775	32723	32607	0	37250	34631	33714	
1986	0	32839	32647	32679	0	37240	34615	33743	
1987	0	32738	32720	32590	0	37215	34610	33754	
1988	0	32800	32707	32623	0	37227	34601	33735	
1989	0	32680	32719	32530	0	37203	34595	33739	
1990	0	32738	32765	32763	0	37228	34616	33748	
1991	0	32751	32619	32612	0	37210	34607	33742	
1992	0	32807	32516	32751	0	37217	34616	33744	
1993	0	32726	32557	32594	0	37216	34629	33727	
1994	0	32792	32691	32607	0	37200	34619	33735	
1995	0	32762	32766	32619	0	37210	34614	33755	
1996	0	32771	32511	32639	0	37227	34605	33743	
1997	0	32733	32623	32559	0	37210	34603	33760	
1998	0	32802	32705	32570	0	37211	34619	33743	
1999	0	32760	32582	32699	0	37243	34624	33730	
2000	0	32813	32613	32711	0	37219	34623	33742	
2001	0	32734	32673	32535	0	37227	34603	33718	
2002	0	32754	32647	32576	0	37248	34614	33732	
2003	0	32738	32799	32711	0	37227	34605	33735	
2004	0	32797	32611	32632	0	37197	34607	33730	
2005	0	32732	32740	32711	0	37227	34605	33730	
2006	0	32768	32759	32710	0	37220	34621	33731	
2007	0	32724	32692	32697	0	37231	34623	33719	
2008	0	32736	32563	32578	0	37191	34595	33755	
2009	0	32785	32818	32623	0	37236	34617	33735	
2010	0	32772	32619	32545	0	37223	34626	33734	
2011	0	32757	32727	32684	0	37217	34623	33751	
2012	0	32747	32717	32667	0	37187	34619	33747	
2013	0	32768	32749	32580	0	37219	34615	33735	
2014	0	32745	32595	32685	0	37231	34619	33731	
2015	0	32745	32580	32773	0	37241	34603	33752	
2016	0	32788	32698	32663	0	37213	34614	33738	
2017	0	32745	32742	32655	0	37221	34625	33743	
2018	0	32751	32725	32562	0	37231	34609	33744	
2019	0	32723	32647	32727	0	37241	34620	33746	
2020	0	32744	32790	32760	0	37223	34615	33735	
2021	0	32763	32642	32615	0	37231	34601	33735	
2022	0	32713	32647	32576	0	37247	34613	33735	
2023	0	32818	32543	32791	0	37197	34607	33746	
2024	0	32788	32711	32640	0	37215	34601	33739	
2025	0	32736	32772	32751	0	37247	34619	33731	
2026	0	32764	32722	32752	0	37237	34597	33735	
2027	0	32806	32711	32554	0	37217	34611	33752	
2028	0	32786	32746	32679	0	37206	34610	33740	
2029	0	32803	32687	32567	0	37227	34616	33741	
2030	0	32934	32631	32662	0	37230	34601	33746	
2031	0	32790	32658	32607	0	37222	34611	33729	
2032	0	32558	32723	32635	0	37203	34616	33731	
2033	0	32615	32770	32753	0	37203	34600	33719	
2034	0	32926	32731	32507	0	37202	34624	33714	
2035	0	32818	32693	32687	0	37244	34615	33725	
2036	0	32790	32583	32679	0	37254	34591	33754	
2037	0	32768	32699	32698	0	37233	34621	33747	
2038	0	32745	32525	32643	0	37241	34631	33726	
2039	0	32774	32699	32658	0	37199	34615	33748	
2040	0	32812	32734	32571	0	37250	34607	33760	
2041	0	32719	32687	32609	0	37208	34611	33759	
2042	0	32760	32751	32642	0	37215	34610	33747	
2043	0	32762	32765	32766	0	37218	34601	33738	
2044	0	32725	32756	32766	0	37224	34638	33755	
2045	0	32752	32819	32746	0	37222	34646	33767	
2046	0	32814	32743	32647	0	37223	34601	33782	
2047	0	32750	32679	32611	0	37203	34582	33767	
2048	0	32816	32592	32606	0	37206	34576	33735	
2049	0	32743	32731	32600	0	37250	34601	33710	
2050	0	32811	32722	32602	0	37209	34598	33730	
2051	0	32744	32621	32635	0	37219	34601	33723	
2052	0	32775	32674	32604	0	37199	34610	33728	
2053	0	32810	32747	32615	0	37226	34591	33723	
2054	0	32793	32539	32541	0	37227	34587	33754	
2055	0	32751	32567	32567	0	37231	34627	33735	
2056	0	32784	32671	32500	0	37206	34615	33750	
2057	0	32766	32604	32621	0	37213	34629	33735	
2058	0	32765	32672	32657	0	37229	34619	33745	
2059	0	32750	32811	32823	0	37225	34646	33734	
2060	0	32760	32493	32677	0	37223	34619	33750	
2061	0	32764	32711	32674	0	37214	34629	33747	
2062	0	32744	32539	32535	0	37191	34626	33741	
2063	0	32757	32543	32647	0	37200	34607	33758	
2064	0	32790	32745	32626	0	37206	34602	33767	
2065	0	32784	32515	32539	0	37220	34600	33756	
2066	0	32770	32681	32631	0	37251	34599	33751	
2067	0	32768	32562	32667	0	37223	34591	33758	
2068	0	32773	32620	32447	0	37255	34599	33755	
2069	0	32730	32555	32711	0	37227	34593	33751	
2070	0	32775	32666	32634	0	37219	34597	33726	
2071	0	32775	32711	32633	0	37202	34582	33735	
2072	0	32756	32747	32717	0	37231	34597	33711	
2073	0	32738	32684	32645	0	37226	34604	33721	
2074	0	32801	32683	32583	0	37221	34614	33749	
2075	0	32738	32770	32562	0	37187	34624	33754	
2076	0	32743	32593	32599	0	37199	34614	33747	
2077	0	32770	32619	32795	0	37191	34605	33735	
2078	0	32757	32715	32591	0	37235	34618	33742	
2079	0	32719	32737	32647	0	37219	34623	33739	
2080	0	32700	32684	32765	0	37247	34604	33734	
2081	0	32775	32683	32762	0	37225	34619	33735	
2082	0	32836	32735	32730	0	37218	34610	33744	
2083	0	32694	32762	32756	0	37216	34607	33762	
2084	0	32822	32653	32715	0	37231	34623	33746	
2085	0	32738	32802	32681	0	37219	34607	33739	
2086	0	32784	32695	32721	0	37211	34589	33743	
2087	0	32677	32535	32621	0	37227	34609	33757	
2088	0	32774	32722	32711	0	37225	34612	33746	
2089	0	32788	32709	32554	0	37189	34611	33743	
2090	0	32726	32743	32659	0	37210	34605	33751	
2091	0	32724	32701	32700	0	37206	34605	33735	
2092	0	32795	32815	32540	0	37208	34619	33754	
2093	0	32824	32595	32674	0	37233	34603	33735	
2094	0	32722	32726	32634	0	37191	34607	33734	
2095	0	32742	32729	32633	0	37213	34611	33759	
2096	0	32773	32662	32666	0	37227	34610	33759	
2097	0	32740	32747	32581	0	37237	34616	33744	
2098	0	32820	32816	32517	0	37191	34597	33751	
2099	0	32775	32573	32742	0	37232	34611	33731	
2100	0	32790	32695	32717	0	37206	34607	33735	
2101	0	32769	32668	32671	0	37212	34610	33742	
2102	0	32792	32753	32543	0	37217	34619	33731	
2103	0	32786	32795	32707	0	37215	34605	33734	
2104	0	32742	32704	32618	0	37211	34619	33735	
2105	0	32796	32755	32571	0	37206	34608	33743	
2106	0	32797	32723	32748	0	37212	34595	33759	
2107	0	32736	32729	32670	0	37245	34590	33740	
2108	0	32760	32699	32731	0	37219	34601	33751	
2109	0	32772	32708	32658	0	37221	34597	33759	
2110	0	32747	32743	32661	0	37210	34593	33762	
2111	0	32720	32678	32656	0	37245	34611	33743	
2112	0	32808	32694	32583	0	37202	34611	33755	
2113	0	32784	32711	32687	0	37191	34608	33735	
2114	0	32765	32519	32571	0	37225	34597	33762	
2115	0	32712	32796	32738	0	37211	34603	33753	
2116	0	32802	32647	32747	0	37219	34611	33746	
2117	0	32756	32775	32643	0	37237	34622	33735	
2118	0	32745	32647	32636	0	37230	34603	33727	
2119	0	32772	32721	32647	0	37215	34631	33735	
2120	0	32792	32758	32788	0	37210	34615	33735	
2121	0	32739	32727	32583	0	37249	34600	33755	
2122	0	32720	32710	32666	0	37222	34595	33748	
2123	0	32760	32718	32705	0	37224	34593	33746	
2124	0	32764	32701	32751	0	37245	34599	33750	
2125	0	32735	32472	32615	0	37209	34611	33739	
2126	0	32820	32670	32683	0	37191	34595	33746	
2127	0	32716	32647	32772	0	37191	34617	33744	
2128	0	32772	32731	32511	0	37237	34601	33750	
2129	0	32821	32633	32638	0	37233	34603	33755	
2130	0	32887	32727	32595	0	37223	34587	33752	
2131	0	32775	32771	32702	0	37213	34607	33751	
2132	0	32544	32622	32858	0	37175	34609	33722	
2133	0	32707	32558	32523	0	37233	34625	33714	
2134	0	32850	32663	32615	0	37223	34599	33722	
2135	0	32784	32743	32607	0	37211	34592	33745	
2136	0	32782	32715	32525	0	37204	34597	33752	
2137	0	32808	32770	32629	0	37191	34626	33754	
2138	0	32762	32553	32654	0	37210	34610	33741	
2139	0	32768	32738	32681	0	37223	34625	33732	
2140	0	32794	32685	32787	0	37219	34619	33747	
2141	0	32773	32717	32543	0	37217	34603	33751	
2142	0	32752	32703	32658	0	37215	34607	33730	
2143	0	32775	32790	32681	0	37222	34612	33745	
2144	0	32773	32558	32517	0	37252	34646	33752	
2145	0	32731	32736	32557	0	37214	34651	33750	
2146	0	32766	32775	32662	0	37215	34601	33771	
2147	0	32748	32572	32711	0	37217	34568	33755	
2148	0	32824	32674	32576	0	37187	34577	33734	
2149	0	32755	32747	32515	0	37233	34588	33725	
2150	0	32805	32559	32519	0	37211	34600	33734	
2151	0	32786	32813	32693	0	37204	34599	33735	
2152	0	32782	32750	32586	0	37246	34594	33735	
2153	0	32771	32666	32639	0	37213	34615	33728	
2154	0	32805	32775	32623	0	37225	34607	33746	
2155	0	32794	32570	32493	0	37209	34603	33753	
2156	0	32775	32493	32765	0	37211	34623	33759	
2157	0	32775	32745	32606	0	37208	34617	33747	
2158	0	32791	32681	32647	0	37217	34623	33735	
2159	0	32706	32603	32551	0	37239	34619	33771	
2160	0	32772	32775	32690	0	37223	34631	33755	
2161	0	32775	32550	32682	0	37191	34607	33751	
2162	0	32835	32647	32745	0	37219	34597	33769	
2163	0	32768	32673	32714	0	37220	34610	33757	
2164	0	32768	32543	32763	0	37215	34593	33755	
2165	0	32729	32818	32681	0	37191	34593	33751	
2166	0	32734	32743	32655	0	37202	34617	33747	
2167	0	32781	32583	32546	0	37211	34610	33746	
2168	0	32808	32544	32510	0	37191	34592	33743	
2169	0	32759	32519	32647	0	37219	34592	33735	
2170	0	32763	32717	32796	0	37214	34589	33725	
2171	0	32769	32751	32699	0	37216	34597	33721	
2172	0	32748	32583	32548	0	37231	34605	33725	
2173	0	32720	32727	32673	0	37231	34605	33735	
2174	0	32761	32690	32546	0	37191	34617	33745	
2175	0	32796	32662	32602	0	37208	34615	33742	
2176	0	32808	32662	32518	0	37228	34617	33742	
2177	0	32775	32719	32566	0	37218	34638	33728	
2178	0	32767	32711	32630	0	37217	34631	33735	
2179	0	32802	32803	32510	0	37214	34605	33735	
2180	0	32762	32538	32672	0	37231	34617	33730	
2181	0	32809	32583	32519	0	37208	34610	33731	
2182	0	32805	32711	32659	0	37215	34623	33742	
2183	0	32798	32775	32774	0	37227	34624	33749	
2184	0	32788	32566	32620	0	37217	34621	33743	
2185	0	32738	32742	32730	0	37225	34613	33746	
2186	0	32751	32710	32575	0	37191	34611	33752	
2187	0	32771	32635	32763	0	37230	34607	33735	
2188	0	32848	32713	32617	0	37219	34615	33735	
2189	0	32745	32690	32615	0	37191	34614	33735	
2190	0	32740	32559	32611	0	37168	34615	33752	
2191	0	32724	32699	32671	0	37202	34637	33734	
2192	0	32808	32745	32685	0	37223	34636	33735	
2193	0	32744	32576	32475	0	37203	34607	33749	
2194	0	32792	32723	32591	0	37219	34617	33731	
2195	0	32812	32742	32569	0	37207	34618	33742	
2196	0	32710	32691	32603	0	37207	34612	33746	
2197	0	32799	32609	32735	0	37242	34611	33751	
2198	0	32765	32816	32740	0	37252	34604	33735	
2199	0	32783	32775	32706	0	37215	34618	33727	
2200	0	32774	32611	32615	0	37235	34607	33741	
2201	0	32784	32605	32675	0	37205	34619	33730	
2202	0	32770	32710	32725	0	37203	34619	33735	
2203	0	32721	32707	32692	0	37215	34618	33735	
2204	0	32749	32662	32647	0	37214	34627	33731	
2205	0	32820	32743	32742	0	37199	34631	33749	
2206	0	32786	32775	32533	0	37221	34619	33728	
2207	0	32792	32660	32518	0	37202	34623	33742	
2208	0	32795	32760	32518	0	37199	34619	33738	
2209	0	32762	32711	32509	0	37200	34615	33735	
2210	0	32760	32675	32704	0	37210	34631	33735	
2211	0	32775	32763	32702	0	37219	34628	33735	
2212	0	32805	32742	32647	0	37226	34613	33738	
2213	0	32756	32699	32685	0	37214	34626	33739	
2214	0	32733	32723	32715	0	37233	34615	33739	
2215	0	32728	32598	32635	0	37227	34628	33735	
2216	0	32790	32627	32754	0	37223	34619	33735	
2217	0	32762	32711	32718	0	37215	34641	33741	
2218	0	32781	32683	32685	0	37209	34627	33725	
2219	0	32792	32764	32561	0	37218	34615	33735	
2220	0	32791	32751	32711	0	37188	34609	33735	
2221	0	32757	32743	32518	0	37221	34616	33735	
2222	0	32854	32531	32599	0	37222	34619	33721	
2223	0	32752	32731	32703	0	37191	34631	33723	
2224	0	32802	32720	32672	0	37234	34631	33728	
2225	0	32808	32749	32647	0	37231	34622	33731	
2226	0	32738	32673	32594	0	37211	34621	33739	
2227	0	32774	32516	32735	0	37222	34624	33735	
2228	0	32786	32551	32692	0	37221	34619	33744	
2229	0	32808	32775	32524	0	37237	34629	33734	
2230	0	32825	32699	32671	0	37223	34631	33735	
2231	0	32656	32566	32775	0	37186	34631	33735	
2232	0	32527	32743	32659	0	37212	34613	33755	
2233	0	32804	32751	32626	0	37191	34642	33725	
2234	0	32888	32642	32467	0	37215	34628	33730	
2235	0	32786	32611	32599	0	37202	34630	33733	
2236	0	32795	32741	32647	0	37203	34619	33731	
2237	0	32724	32675	32597	0	37206	34640	33735	
2238	0	32771	32734	32543	0	37197	34648	33721	
2239	0	32738	32734	32723	0	37225	34631	33735	
2240	0	32772	32563	32714	0	37198	34619	33762	
2241	0	32748	32674	32678	0	37207	34626	33746	
2242	0	32829	32711	32647	0	37196	34649	33734	
2243	0	32727	32557	32713	0	37197	34646	33735	
2244	0	32771	32736	32506	0	37197	34663	33754	
2245	0	32764	32794	32717	0	37199	34663	33750	
2246	0	32782	32628	32631	0	37191	34600	33762	
2247	0	32764	32647	32681	0	37244	34587	33742	
2248	0	32818	32756	32620	0	37191	34619	33712	
2249	0	32760	32746	32607	0	37232	34610	33702	
2250	0	32790	32711	32583	0	37198	34619	33714	
2251	0	32742	32707	32706	0	37191	34626	33718	
2252	0	32771	32691	32592	0	37191	34631	33731	
2253	0	32753	32775	32611	0	37198	34646	33729	
2254	0	32775	32611	32633	0	37219	34627	33741	
2255	0	32757	32647	32519	0	37191	34647	33735	
2256	0	32814	32642	32542	0	37191	34660	33730	
2257	0	32773	32774	32596	0	37199	34649	33751	
2258	0	32813	32711	32656	0	37203	34649	33730	
2259	0	32720	32763	32550	0	37215	34655	33723	
2260	0	32770	32592	32603	0	37196	34647	33730	
2261	0	32768	32626	32703	0	37214	34668	33723	
2262	0	32710	32668	32773	0	37183	34631	33743	
2263	0	32724	32697	32615	0	37182	34631	33730	
2264	0	32804	32540	32546	0	37191	34635	33735	
2265	0	32720	32731	32646	0	37206	34630	33734	
2266	0	32793	32760	32663	0	37228	34631	33735	
2267	0	32729	32703	32686	0	37210	34623	33728	
2268	0	32736	32545	32507	0	37196	34616	33728	
2269	0	32774	32677	32690	0	37219	34604	33721	
2270	0	32804	32601	32510	0	37206	34623	33719	
2271	0	32774	32732	32679	0	37213	34626	33723	
2272	0	32791	32633	32636	0	37228	34640	33735	
2273	0	32714	32578	32669	0	37217	34650	33728	
2274	0	32808	32499	32758	0	37197	34643	33726	
2275	0	32730	32711	32692	0	37221	34651	33735	
2276	0	32797	32722	32603	0	37203	34640	33741	
2277	0	32768	32759	32523	0	37219	34643	33730	
2278	0	32744	32807	32535	0	37235	34663	33716	
2279	0	32741	32685	32626	0	37204	34635	33726	
2280	0	32758	32598	32759	0	37196	34650	33734	
2281	0	32795	32662	32571	0	37206	34654	33721	
2282	0	32744	32599	32511	0	37196	34639	33739	
2283	0	32827	32769	32678	0	37235	34631	33738	
2284	0	32812	32599	32739	0	37211	34641	33727	
2285	0	32744	32708	32622	0	37214	34653	33735	
2286	0	32829	32655	32507	0	37241	34642	33730	
2287	0	32740	32730	32706	0	37223	34646	33730	
2288	0	32749	32510	32607	0	37210	34642	33739	
2289	0	32768	32655	32725	0	37215	34631	33728	
2290	0	32775	32583	32517	0	37223	34639	33731	
2291	0	32741	32771	32641	0	37231	34631	33730	
2292	0	32808	32730	32647	0	37222	34631	33721	
2293	0	32789	32654	32530	0	37211	34641	33731	
2294	0	32826	32731	32681	0	37198	34631	33735	
2295	0	32788	32722	32496	0	37224	34647	33723	
2296	0	32761	32655	32626	0	37217	34648	33721	
2297	0	32688	32631	32743	0	37207	34646	33710	
2298	0	32802	32718	32486	0	37203	34643	33730	
2299	0	32775	32539	32467	0	37209	34658	33708	
2300	0	32720	32743	32692	0	37209	34655	33706	
2301	0	32758	32757	32671	0	37191	34646	33719	
2302	0	32775	32694	32677	0	37215	34655	33714	
2303	0	32744	32527	32542	0	37219	34659	33727	
2304	0	32780	32689	32691	0	37206	34636	33723	
2305	0	32749	32688	32621	0	37223	34655	33727	
2306	0	32784	32738	32548	0	37215	34658	33727	
2307	0	32723	32800	32743	0	37222	34639	33734	
2308	0	32769	32775	32748	0	37214	34654	33731	
2309	0	32711	32677	32676	0	37214	34636	33731	
2310	0	32826	32783	32704	0	37191	34650	33723	
2311	0	32751	32669	32603	0	37217	34642	33735	
2312	0	32783	32747	32800	0	37191	34654	33723	
2313	0	32734	32547	32615	0	37227	34646	33739	
2314	0	32691	32688	32765	0	37225	34641	33739	
2315	0	32728	32719	32626	0	37196	34643	33734	
2316	0	32752	32711	32719	0	37227	34643	33728	
2317	0	32751	32682	32679	0	37225	34651	33727	
2318	0	32790	32547	32599	0	37199	34646	33734	
2319	0	32735	32674	32647	0	37216	34631	33715	
2320	0	32769	32758	32574	0	37206	34649	33707	
2321	0	32770	32763	32430	0	37183	34639	33721	
2322	0	32775	32647	32579	0	37207	34639	33730	
2323	0	32760	32710	32515	0	37223	34631	33719	
2324	0	32838	32591	32539	0	37191	34637	33714	
2325	0	32900	32687	32464	0	37181	34631	33730	
2326	0	32745	32714	32534	0	37198	34643	33711	
2327	0	32488	32807	32819	0	37187	34636	33730	
2328	0	32640	32771	32729	0	37196	34649	33714	
2329	0	32818	32609	32741	0	37211	34642	33715	
2330	0	32805	32761	32639	0	37214	34647	33717	
2331	0	32826	32760	32630	0	37211	34648	33720	
2332	0	32774	32526	32717	0	37207	34637	33725	
2333	0	32726	32755	32674	0	37190	34653	33731	
2334	0	32793	32715	32682	0	37176	34657	33727	
2335	0	32794	32730	32610	0	37206	34649	33738	
2336	0	32755	32695	32561	0	37215	34653	33735	
2337	0	32733	32756	32727	0	37222	34662	33723	
2338	0	32754	32678	32555	0	37223	34646	33727	
2339	0	32768	32754	32671	0	37191	34662	33723	
2340	0	32792	32587	32667	0	37211	34663	33731	
2341	0	32756	32754	32727	0	37233	34631	33735	
2342	0	32766	32769	32669	0	37223	34605	33730	
2343	0	32803	32638	32583	0	37218	34603	33719	
2344	0	32808	32785	32598	0	37226	34627	33687	
2345	0	32820	32703	32642	0	37191	34627	33698	
2346	0	32782	32785	32688	0	37216	34655	33698	
2347	0	32768	32772	32551	0	37224	34621	33716	
2348	0	32752	32548	32743	0	37191	34630	33704	
2349	0	32761	32657	32645	0	37214	34631	33723	
2350	0	32744	32711	32499	0	37202	34631	33750	
2351	0	32748	32775	32610	0	37191	34659	33727	
2352	0	32772	32599	32751	0	37223	34677	33717	
2353	0	32796	32741	32469	0	37177	34656	33727	
2354	0	32846	32684	32745	0	37218	34651	33711	
2355	0	32773	32556	32546	0	37211	34647	33720	
2356	0	32773	32759	32647	0	37219	34640	33719	
2357	0	32710	32753	32745	0	37209	34655	33725	
2358	0	32738	32773	32586	0	37209	34650	33715	
2359	0	32770	32701	32470	0	37220	34615	33737	
2360	0	32788	32671	32601	0	37217	34624	33727	
2361	0	32744	32563	32672	0	37221	34642	33730	
2362	0	32802	32575	32672	0	37202	34640	33716	
2363	0	32730	32714	32739	0	37223	34611	33712	
2364	0	32762	32711	32667	0	37206	34595	33734	
2365	0	32711	32719	32660	0	37211	34597	33718	
2366	0	32756	32634	32699	0	37191	34601	33703	
2367	0	32763	32719	32487	0	37223	34630	33712	
2368	0	32796	32743	32539	0	37206	34641	33721	
2369	0	32751	32530	32631	0	37202	34625	33724	
2370	0	32773	32595	32707	0	37213	34616	33735	
2371	0	32700	32685	32633	0	37251	34655	33719	
2372	0	32722	32681	32639	0	37223	34642	33711	
2373	0	32760	32621	32702	0	37191	34630	33706	
2374	0	32794	32724	32599	0	37201	34631	33715	
2375	0	32724	32747	32590	0	37223	34631	33718	
2376	0	32794	32758	32647	0	37191	34637	33728	
2377	0	32786	32721	32685	0	37206	34631	33734	
2378	0	32758	32870	32673	0	37213	34661	33710	
2379	0	32779	32631	32531	0	37190	34612	33735	
2380	0	32824	32795	32614	0	37217	34618	33735	
2381	0	32712	32646	32701	0	37183	34621	33731	
2382	0	32749	32575	32601	0	37233	34616	33735	
2383	0	32775	32606	32562	0	37219	34640	33718	
2384	0	32751	32600	32711	0	37233	34625	33725	
2385	0	32714	32615	32445	0	37202	34619	33731	
2386	0	32694	32692	32547	0	37199	34611	33735	
2387	0	32748	32615	32527	0	37203	34619	33734	
2388	0	32773	32671	32643	0	37242	34619	33735	
2389	0	32786	32722	32509	0	37210	34623	33725	
2390	0	32818	32562	32658	0	37211	34637	33721	
2391	0	32750	32516	32757	0	37211	34626	33731	
2392	0	32762	32775	32666	0	37223	34629	33715	
2393	0	32752	32676	32634	0	37197	34617	33695	
2394	0	32737	32746	32538	0	37213	34619	33717	
2395	0	32751	32557	32759	0	37215	34629	33703	
2396	0	32802	32715	32773	0	37231	34627	33723	
2397	0	32745	32807	32554	0	37231	34623	33713	
2398	0	32767	32583	32658	0	37181	34627	33714	
2399	0	32729	32547	32723	0	37177	34651	33711	
2400	0	32806	32771	32647	0	37212	34623	33721	
2401	0	32754	32663	32579	0	37228	34611	33735	
2402	0	32796	32775	32730	0	37217	34623	33721	
2403	0	32799	32751	32642	0	37230	34619	33754	
2404	0	32811	32699	32647	0	37206	34627	33721	
2405	0	32727	32705	32681	0	37179	34625	33735	
2406	0	32749	32653	32718	0	37229	34615	33734	
2407	0	32733	32774	32638	0	37216	34614	33735	
2408	0	32749	32690	32619	0	37221	34616	33739	
2409	0	32738	32589	32526	0	37212	34605	33724	
2410	0	32751	32562	32707	0	37226	34621	33730	
2411	0	32710	32739	32717	0	37243	34601	33749	
2412	0	32748	32667	32667	0	37207	34612	33742	
2413	0	32752	32723	32587	0	37196	34626	33734	
2414	0	32762	32692	32654	0	37228	34609	33734	
2415	0	32731	32500	32571	0	37210	34631	33718	
2416	0	32786	32761	32604	0	37199	34627	33730	
2417	0	32690	32509	32615	0	37209	34627	33727	
2418	0	32748	32694	32711	0	37199	34613	33723	
2419	0	32774	32639	32658	0	37221	34619	33723	
2420	0	32795	32735	32615	0	37229	34610	33725	
2421	0	32754	32707	32723	0	37247	34623	33727	
2422	0	32750	32683	32677	0	37202	34624	33743	
2423	0	32794	32636	32595	0	37191	34611	33727	
2424	0	32868	32702	32593	0	37200	34630	33717	
2425	0	32702	32729	32517	0	37207	34627	33735	
2426	0	32499	32818	32659	0	37202	34614	33721	
2427	0	32681	32742	32708	0	37224	34617	33725	
2428	0	32892	32734	32583	0	37231	34597	33731	
2429	0	32856	32621	32705	0	37223	34603	33731	
2430	0	32791	32755	32748	0	37231	34605	33735	
2431	0	32811	32527	32515	0	37237	34623	33706	
2432	0	32792	32701	32653	0	37223	34623	33735	
2433	0	32789	32743	32704	0	37191	34631	33719	
2434	0	32743	32775	32519	0	37210	34618	33735	
2435	0	32673	32692	32546	0	37235	34594	33759	
2436	0	32819	32742	32736	0	37219	34598	33735	
2437	0	32718	32733	32764	0	37217	34614	33742	
2438	0	32832	32611	32710	0	37223	34631	33746	
2439	0	32740	32790	32612	0	37218	34647	33758	
2440	0	32818	32775	32691	0	37237	34631	33766	
2441	0	32775	32688	32754	0	37205	34577	33751	
2442	0	32788	32692	32646	0	37219	34579	33730	
2443	0	32729	32566	32647	0	37228	34596	33723	
2444	0	32728	32775	32708	0	37236	34603	33723	
2445	0	32752	32687	32677	0	37211	34627	33715	
2446	0	32760	32671	32503	0	37233	34618	33711	
2447	0	32775	32698	32591	0	37218	34607	33735	
2448	0	32758	32703	32707	0	37233	34605	33735	
2449	0	32730	32711	32666	0	37198	34631	33741	
2450	0	32816	32995	32583	0	37233	34626	33743	
2451	0	32814	32511	32521	0	37226	34647	33715	
2452	0	32748	32755	32621	0	37200	34631	33735	
2453	0	32717	32702	32684	0	37206	34642	33723	
2454	0	32781	32623	32506	0	37221	34616	33731	
2455	0	32714	32821	32732	0	37217	34623	33735	
2456	0	32772	32711	32662	0	37207	34622	33735	
2457	0	32738	32664	32592	0	37215	34616	33753	
2458	0	32790	32771	32629	0	37207	34601	33751	
2459	0	32752	32705	32530	0	37231	34607	33746	
2460	0	32823	32583	32534	0	37235	34623	33735	
2461	0	32736	32749	32723	0	37211	34601	33746	
2462	0	32775	32550	32703	0	37219	34606	33739	
2463	0	32769	32743	32692	0	37218	34600	33723	
2464	0	32734	32799	32733	0	37210	34598	33730	
2465	0	32760	32694	32534	0	37215	34591	33721	
2466	0	32775	32743	32655	0	37187	34597	33719	
2467	0	32758	32771	32661	0	37239	34600	33723	
2468	0	32812	32614	32467	0	37214	34623	33735	
2469	0	32774	32690	32495	0	37222	34635	33735	
2470	0	32744	32550	32758	0	37191	34608	33758	
2471	0	32768	32582	32742	0	37227	34631	33746	
2472	0	32760	32759	32501	0	37210	34637	33731	
2473	0	32809	32711	32591	0	37229	34612	33734	
2474	0	32775	32708	32662	0	37191	34619	33730	
2475	0	32800	32579	32547	0	37209	34611	33721	
2476	0	32717	32737	32531	0	37215	34617	33727	
2477	0	32740	32749	32514	0	37240	34598	33750	
2478	0	32807	32706	32727	0	37206	34611	33735	
2479	0	32758	32693	32612	0	37251	34627	33730	
2480	0	32858	32695	32619	0	37208	34607	33732	
2481	0	32728	32811	32634	0	37203	34607	33754	
2482	0	32775	32739	32599	0	37231	34605	33758	
2483	0	32734	32647	32762	0	37232	34605	33765	
2484	0	32769	32720	32711	0	37205	34612	33739	
2485	0	32714	32703	32606	0	37202	34618	33747	
2486	0	32784	32539	32623	0	37245	34600	33750	
2487	0	32737	32502	32551	0	37203	34605	33728	
2488	0	32812	32527	32700	0	37215	34603	33743	
2489	0	32710	32711	32720	0	37241	34623	33730	
2490	0	32774	32773	32763	0	37241	34620	33751	
2491	0	32728	32773	32678	0	37229	34619	33743	
2492	0	32786	32726	32678	0	37246	34605	33743	
2493	0	32789	32715	32694	0	37216	34607	33750	
2494	0	32824	32775	32487	0	37237	34594	33742	
2495	0	32724	32699	32570	0	37219	34619	33730	
2496	0	32773	32698	32800	0	37233	34611	33735	
2497	0	32728	32767	32603	0	37215	34599	33746	
2498	0	32786	32745	32500	0	37237	34593	33746	
2499	0	32769	32578	32581	0	37191	34613	33734	
2500	0	32748	32730	32595	0	37213	34595	33739	
2501	0	32817	32593	32624	0	37215	34603	33749	
2502	0	32782	32759	32503	0	37211	34611	33744	
2503	0	32701	32775	32693	0	37225	34616	33743	
2504	0	32738	32839	32681	0	37203	34613	33740	
2505	0	32708	32619	32489	0	37206	34601	33735	
2506	0	32800	32775	32525	0	37187	34631	33745	
2507	0	32742	32703	32680	0	37221	34616	33743	
2508	0	32767	32531	32659	0	37239	34611	33752	
2509	0	32784	32727	32687	0	37212	34607	33745	
2510	0	32731	32725	32510	0	37223	34614	33740	
2511	0	32720	32626	32483	0	37200	34608	33743	
2512	0	32775	32711	32674	0	37215	34615	33728	
2513	0	32676	32567	32602	0	37223	34607	33730	
2514	0	32781	32619	32757	0	37241	34590	33752	
2515	0	32824	32700	32519	0	37235	34603	33740	
2516	0	32848	32493	32646	0	37207	34614	33751	
2517	0	32754	32544	32671	0	37225	34613	33751	
2518	0	32793	32728	32572	0	37207	34605	33725	
2519	0	32745	32775	32595	0	37235	34607	33751	
2520	0	32821	32694	32640	0	37213	34601	33743	
2521	0	32773	32759	32787	0	37223	34607	33746	
2522	0	32740	32775	32632	0	37237	34613	33743	
2523	0	32748	32823	32775	0	37203	34607	33751	
2524	0	32764	32747	32635	0	37254	34605	33739	
2525	0	32754	32711	32656	0	37221	34610	33735	
2526	0	32775	32659	32682	0	37242	34615	33751	
2527	0	32775	32663	32720	0	37227	34597	33747	
2528	0	32803	32732	32693	0	37200	34596	33747	
2529	0	32790	32647	32503	0	37237	34599	33754	
2530	0	32873	32785	32583	0	37210	34611	33746	
2531	0	32726	32635	32503	0	37215	34619	33735	
2532	0	32500	32763	32863	0	37223	34607	33735	
2533	0	32728	32653	32735	0	37191	34605	33735	
2534	0	32840	32757	32726	0	37215	34596	33735	
2535	0	32814	32550	32595	0	37200	34627	33734	
2536	0	32771	32662	32701	0	37229	34587	33758	
2537	0	32749	32801	32474	0	37229	34623	33735	
2538	0	32762	32647	32544	0	37224	34618	33735	
2539	0	32756	32756	32735	0	37187	34617	33748	
2540	0	32772	32615	32743	0	37218	34607	33769	
2541	0	32741	32621	32518	0	37247	34578	33768	
2542	0	32771	32743	32711	0	37243	34609	33754	
2543	0	32808	32564	32594	0	37211	34625	33735	
2544	0	32788	32754	32531	0	37233	34631	33777	
2545	0	32766	32707	32687	0	37203	34635	33771	
2546	0	32780	32722	32670	0	37229	34597	33769	
2547	0	32718	32627	32632	0	37237	34579	33746	
2548	0	32775	32583	32593	0	37214	34573	33728	
2549	0	32764	32743	32767	0	37219	34601	33730	
2550	0	32770	32750	32703	0	37228	34601	33735	
2551	0	32775	32731	32579	0	37231	34603	33719	
2552	0	32763	32711	32679	0	37223	34595	33739	
2553	0	32742	32747	32643	0	37219	34600	33734	
2554	0	32756	32759	32523	0	37229	34621	33741	
2555	0	32766	32566	32638	0	37231	34625	33755	
2556	0	32760	32613	32647	0	37222	34607	33747	
2557	0	32760	32735	32734	0	37204	34631	33730	
2558	0	32795	32715	32687	0	37221	34627	33755	
2559	0	32742	32659	32747	0	37217	34631	33742	
2560	0	32792	32583	32550	0	37207	34621	33759	
2561	0	32718	32775	32670	0	37191	34607	33751	
2562	0	32760	32709	32594	0	37211	34601	33760	
2563	0	32766	32773	32671	0	37210	34616	33753	
2564	0	32780	32745	32564	0	37215	34611	33762	
2565	0	32808	32546	32683	0	37228	34591	33751	
2566	0	32792	32807	32607	0	37218	34597	33751	
2567	0	32728	32625	32698	0	37206	34588	33744	
2568	0	32805	32631	32575	0	37239	34586	33746	
2569	0	32829	32738	32691	0	37226	34599	33743	
2570	0	32749	32731	32603	0	37218	34601	33741	
2571	0	32756	32807	32694	0	37227	34587	33742	
2572	0	32819	32647	32714	0	37202	34592	33723	
2573	0	32762	32735	32701	0	37239	34615	33731	
2574	0	32787	32738	32804	0	37246	34619	33735	
2575	0	32752	32749	32662	0	37211	34625	33758	
2576	0	32806	32757	32599	0	37218	34614	33751	
2577	0	32744	32812	32731	0	37222	34631	33735	
2578	0	32815	32573	32643	0	37223	34623	33735	
2579	0	32734	32764	32639	0	37223	34611	33749	
2580	0	32769	32763	32546	0	37206	34617	33744	
2581	0	32716	32729	32687	0	37200	34617	33725	
2582	0	32784	32775	32586	0	37229	34613	33744	
2583	0	32742	32587	32643	0	37223	34617	33748	
2584	0	32758	32624	32727	0	37255	34601	33766	
2585	0	32735	32767	32808	0	37208	34608	33743	
2586	0	32821	32605	32663	0	37223	34602	33740	
2587	0	32760	32754	32658	0	37213	34611	33749	
2588	0	32762	32694	32771	0	37217	34603	33750	
2589	0	32742	32748	32762	0	37223	34615	33746	
2590	0	32799	32727	32621	0	37222	34615	33735	
2591	0	32755	32638	32575	0	37245	34610	33734	
2592	0	32733	32694	32546	0	37233	34599	33744	
2593	0	32756	32702	32642	0	37225	34619	33731	
2594	0	32828	32597	32612	0	37206	34610	33735	
2595	0	32766	32725	32664	0	37231	34623	33746	
2596	0	32800	32706	32538	0	37221	34631	33734	
2597	0	32750	32775	32554	0	37239	34621	33735	
2598	0	32790	32775	32731	0	37235	34603	33739	
2599	0	32760	32738	32567	0	37224	34607	33759	
2600	0	32818	32647	32677	0	37255	34612	33757	
2601	0	32809	32678	32683	0	37229	34593	33746	
2602	0	32720	32766	32769	0	37235	34599	33730	
2603	0	32775	32595	32698	0	37231	34599	33750	
2604	0	32755	32707	32775	0	37255	34607	33757	
2605	0	32812	32791	32522	0	37243	34595	33755	
2606	0	32783	32683	32744	0	37239	34617	33734	
2607	0	32742	32690	32645	0	37214	34618	33761	
2608	0	32775	32593	32762	0	37215	34615	33746	
2609	0	32794	32625	32670	0	37223	34595	33754	
2610	0	32830	32747	32607	0	37245	34617	33735	
2611	0	32786	32503	32489	0	37221	34615	33734	
2612	0	32756	32725	32665	0	37233	34615	33734	
2613	0	32758	32719	32546	0	37216	34617	33743	
2614	0	32775	32689	32530	0	37218	34605	33752	
2615	0	32740	32579	32566	0	37223	34602	33747	
2616	0	32768	32745	32676	0	37245	34604	33739	
2617	0	32760	32736	32645	0	37218	34600	33747	
