# OpenSignals Text File Format
# {"00:07:80:3B:46:38": {"sensor": ["EMG", "EMG", "EMG", "EMG", "XYZ", "XYZ", "XYZ"], "device name": "00:07:80:3B:46:38", "column": ["nSeq", "DI", "FL", "BL", "FR", "BR", "Z", "Y", "X"], "sync interval": 2, "time": "14:11:26.910", "comments": "", "device connection": "BTH00:07:80:3B:46:38", "channels": [1, 2, 3, 4, 6, 7, 8], "date": "2016-6-24", "mode": 0, "digital IO": [0, 1], "firmware version": 772, "device": "biosignalsplux", "position": 0, "sampling rate": 100, "label": ["FL", "BL", "FR", "BR", "Z", "Y", "X"], "resolution": [16, 16, 16, 16, 16, 16, 16], "special": [{}, {}, {}, {}, {}, {}, {}]}}
# EndOfHeader
0	0	32708	32690	32423	32732	36224	29248	32957	
1	0	32875	32657	32989	31988	36223	29242	32962	
2	0	32914	31943	32931	32771	36185	29280	32931	
3	0	33197	32608	32630	32829	36201	29269	32909	
4	0	32711	32762	32504	32967	36167	29261	32903	
5	0	32688	32485	32828	32743	36201	29260	32918	
6	0	32756	32470	32459	32839	36207	29277	32918	
7	0	33432	32570	32632	32848	36226	29261	32921	
8	0	33113	30546	32476	32857	36199	29257	32918	
9	0	32524	32518	32359	32384	36190	29258	32909	
10	0	32744	32411	32569	32410	36207	29255	32921	
11	0	32703	32111	32675	32855	36163	29267	32919	
12	0	32774	31504	32899	32246	36207	29254	32912	
13	0	32824	32121	32493	32596	36222	29249	32920	
14	0	32998	32735	33016	32754	36199	29262	32913	
15	0	32595	32837	32449	32723	36195	29255	32926	
16	0	32808	32628	32632	32818	36191	29248	32935	
17	0	32536	32759	32552	32775	36189	29243	32924	
18	0	32739	32761	32440	32930	36227	29229	32941	
19	0	32982	32505	32559	33008	36171	29237	32935	
20	0	32438	32352	32680	32706	36198	29242	32927	
21	0	33056	32839	32606	32310	36215	29259	32921	
22	0	32804	32878	32808	33234	36179	29270	32919	
23	0	32770	34069	32679	32875	36197	29246	32943	
24	0	32804	32382	32859	32775	36182	29242	32935	
25	0	32713	32346	32720	32753	36194	29257	32923	
26	0	33052	32569	32641	33215	36193	29270	32923	
27	0	32590	32711	32750	32733	36182	29249	32935	
28	0	32512	32827	32391	32871	36191	29239	32932	
29	0	32918	31990	32711	32291	36181	29240	32943	
30	0	32658	33469	32588	33927	36200	29223	32958	
31	0	33179	32704	32891	32372	36200	29237	32933	
32	0	32457	32470	32719	32379	36211	29250	32937	
33	0	33110	32626	32557	32787	36175	29242	32924	
34	0	33152	33830	32710	32816	36213	29252	32933	
35	0	32619	32451	32343	32775	36182	29245	32922	
36	0	33006	33607	32854	32607	36185	29242	32944	
37	0	32870	32734	32839	32805	36191	29241	32946	
38	0	33018	32476	32679	32677	36191	29243	32941	
39	0	32684	31674	32806	32899	36212	29232	32949	
40	0	33236	32679	32745	32756	36196	29251	32950	
41	0	32854	32695	32579	32651	36197	29245	32943	
42	0	32306	32775	32707	33002	36193	29235	32935	
43	0	32775	32447	32621	32723	36163	29242	32933	
44	0	32654	32538	32804	32493	36160	29257	32926	
45	0	32728	32694	32621	33488	36176	29250	32902	
46	0	32922	32272	32507	33359	36182	29245	32927	
47	0	33070	33848	32834	32548	36192	29235	32930	
48	0	33230	32263	32495	32569	36210	29227	32930	
49	0	32429	33043	32390	32683	36183	29231	32935	
50	0	32520	33328	32488	32702	36197	29246	32925	
51	0	32617	32599	32519	33215	36189	29232	32927	
52	0	32506	32455	32818	33000	36191	29242	32924	
53	0	32762	32716	32738	32785	36193	29264	32913	
54	0	32408	32755	32754	32703	36167	29252	32912	
55	0	32690	32702	32662	32729	36178	29228	32915	
56	0	33216	32903	32774	32835	36185	29243	32893	
57	0	32734	33122	32595	32842	36170	29225	32903	
58	0	32560	32613	32822	32238	36151	29249	32903	
59	0	32718	32064	32742	32154	36189	29232	32928	
60	0	32327	33230	32398	33254	36189	29242	32911	
61	0	32536	32303	32951	32384	36165	29238	32914	
62	0	32801	32967	32931	32621	36168	29231	32913	
63	0	32438	32855	32775	32751	36158	29232	32900	
64	0	32728	32755	32623	32798	36178	29223	32920	
65	0	32766	32462	32404	32771	36167	29236	32903	
66	0	32918	33164	32605	32691	36203	29224	32911	
67	0	32671	32327	32547	32194	36172	29227	32916	
68	0	32680	32376	32391	32818	36179	29224	32922	
69	0	32502	32590	32936	32846	36191	29236	32903	
70	0	32858	32989	32825	31915	36183	29237	32903	
71	0	32443	32802	32447	32791	36204	29221	32925	
72	0	32504	32434	32562	32751	36199	29223	32924	
73	0	32663	32708	32594	32875	36199	29232	32937	
74	0	33042	32719	32647	32423	36180	29255	32919	
75	0	33060	32721	32789	32719	36178	29244	32903	
76	0	32482	32527	32275	32671	36189	29231	32919	
77	0	32594	32831	32660	32453	36211	29237	32918	
78	0	32530	32784	32498	32568	36185	29242	32930	
79	0	32894	32299	32594	32070	36167	29230	32909	
80	0	32850	32640	32549	33122	36189	29226	32903	
81	0	32432	32317	32396	32806	36182	29235	32899	
82	0	32865	35501	32637	33056	36216	29221	32926	
83	0	32787	32131	32670	32671	36167	29241	32903	
84	0	32948	33447	32853	32561	36202	29238	32911	
85	0	32720	32721	32710	32533	36196	29243	32925	
86	0	33054	32406	32866	32716	36154	29246	32903	
87	0	32745	32518	32507	32885	36193	29245	32903	
88	0	33083	32534	32480	32120	36191	29255	32911	
89	0	32987	32839	32680	32690	36206	29268	32903	
90	0	32706	32700	32583	32670	36190	29248	32908	
91	0	32808	32448	32838	33260	36198	29250	32928	
92	0	32832	32013	32592	32961	36210	29237	32911	
93	0	32642	33703	32607	32839	36197	29241	32926	
94	0	32720	32235	32630	32871	36182	29246	32933	
95	0	32932	32248	32526	32305	36219	29255	32918	
96	0	32701	33275	32523	32186	36176	29243	32919	
97	0	32492	32686	32697	32927	36188	29237	32919	
98	0	32924	32447	32327	32091	36187	29233	32925	
99	0	32664	32181	32807	32391	36189	29239	32918	
100	0	32614	32663	32688	32858	36191	29255	32926	
101	0	32730	32798	32670	33048	36195	29247	32930	
102	0	32816	32893	32992	31699	36189	29239	32932	
103	0	32766	32247	32491	32850	36178	29237	32929	
104	0	33114	32967	32850	32992	36199	29245	32915	
105	0	32929	32420	32578	32389	36201	29244	32931	
106	0	32656	32590	32615	32773	36180	29246	32932	
107	0	32808	32374	32583	32788	36184	29237	32923	
108	0	32927	32662	32729	32709	36182	29247	32925	
109	0	32634	32550	32486	32681	36196	29231	32927	
110	0	32720	32553	32577	32809	36189	29247	32934	
111	0	32550	32327	32804	32635	36192	29241	32922	
112	0	33332	32666	32858	32720	36199	29246	32927	
113	0	32820	32622	32653	33307	36199	29237	32924	
114	0	32426	32957	32738	33540	36215	29236	32944	
115	0	32819	32765	32509	32258	36211	29242	32926	
116	0	32708	32100	32708	32748	36191	29222	32943	
117	0	32880	34084	32543	32861	36206	29239	32915	
118	0	32604	32042	32611	32646	36183	29249	32921	
119	0	32688	33037	32720	32754	36218	29252	32935	
120	0	32828	32756	32530	32739	36180	29255	32935	
121	0	32632	32704	32549	32577	36182	29264	32929	
122	0	32628	32558	32690	32142	36160	29243	32950	
123	0	32706	32795	32578	32557	36179	29252	32917	
124	0	32732	32566	32815	32942	36182	29241	32938	
125	0	32509	31781	32432	33219	36189	29252	32928	
126	0	32395	32818	32480	32591	36188	29249	32935	
127	0	32582	32485	32701	32799	36213	29255	32938	
128	0	32611	31494	32599	32591	36218	29255	32916	
129	0	33120	33141	32787	32601	36207	29254	32932	
130	0	32544	32237	32613	32696	36215	29255	32928	
131	0	32884	32673	32557	32719	36205	29252	32941	
132	0	32729	32617	32432	32674	36176	29243	32930	
133	0	32614	32770	32614	32882	36197	29261	32926	
134	0	33207	32635	32442	32578	36200	29244	32917	
135	0	32768	32499	33241	32711	36202	29255	32929	
136	0	32702	32673	32620	32729	36196	29247	32908	
137	0	32674	32834	32617	32551	36198	29237	32928	
138	0	32646	32386	32578	33216	36174	29236	32928	
139	0	32794	32582	32751	32699	36190	29244	32926	
140	0	33146	32545	32619	32750	36194	29230	32933	
141	0	32298	33046	32911	32768	36197	29245	32943	
142	0	32483	33263	32575	32766	36188	29255	32922	
143	0	33218	32338	32571	32752	36191	29253	32896	
144	0	32348	32415	32718	32978	36175	29254	32912	
145	0	32656	32423	32543	32731	36186	29233	32926	
146	0	32892	32255	32775	32664	36199	29242	32921	
147	0	32788	32852	32597	32603	36231	29240	32922	
148	0	32696	32292	32663	32724	36178	29247	32917	
149	0	33036	32739	32547	32628	36204	29223	32931	
150	0	32606	32647	32587	33407	36202	29248	32919	
151	0	32396	34043	33064	32617	36185	29250	32928	
152	0	32760	33615	32470	32944	36204	29252	32931	
153	0	32816	32632	32508	32711	36218	29245	32927	
154	0	32648	32540	32699	32510	36207	29230	32943	
155	0	33070	32543	32807	32307	36189	29257	32911	
156	0	32406	32579	32635	32365	36195	29243	32919	
157	0	32668	32317	32623	32527	36213	29241	32909	
158	0	32561	33629	32645	32715	36189	29241	32912	
159	0	33121	32563	32540	32615	36199	29239	32922	
160	0	32722	32647	32443	32795	36178	29236	32913	
161	0	32914	32618	32457	32806	36182	29246	32917	
162	0	32462	32475	32919	32157	36211	29225	32929	
163	0	32706	31527	32430	32839	36215	29247	32920	
164	0	32780	33561	32711	32918	36205	29234	32932	
165	0	32628	32460	32370	33031	36224	29249	32934	
166	0	33072	32289	32118	32728	36195	29259	32929	
167	0	33001	32471	32391	32915	36185	29228	32933	
168	0	32397	32635	32581	32727	36178	29237	32919	
169	0	32595	32674	32644	32860	36191	29246	32918	
170	0	32723	32406	32510	32277	36178	29241	32924	
171	0	32584	33681	32832	32885	36199	29262	32903	
172	0	32740	32048	32901	33124	36188	29269	32916	
173	0	32792	33287	32640	32647	36167	29235	32925	
174	0	32726	32377	32698	32282	36196	29252	32914	
175	0	32676	32828	32682	32952	36193	29231	32912	
176	0	32793	31842	32530	33016	36172	29239	32919	
177	0	32860	33021	32709	32730	36198	29239	32935	
178	0	32834	32202	32815	32810	36189	29247	32928	
179	0	32670	32263	32751	32743	36189	29255	32915	
180	0	32724	32462	32667	32683	36205	29255	32927	
181	0	32578	32455	32658	32482	36198	29239	32923	
182	0	32701	32567	32417	32850	36196	29258	32915	
183	0	33024	32636	32391	32914	36150	29254	32902	
184	0	32729	32710	32596	32263	36188	29247	32925	
185	0	32809	32488	32635	32821	36160	29249	32903	
186	0	32797	32476	32711	32744	36169	29255	32901	
187	0	32424	32187	32397	32413	36186	29259	32908	
188	0	32892	32720	32508	32729	36182	29237	32933	
189	0	32523	33197	32631	32903	36197	29255	32907	
190	0	32716	32592	33056	32475	36165	29250	32920	
191	0	32642	32784	32643	32386	36199	29229	32935	
192	0	32848	32495	32522	32615	36196	29243	32919	
193	0	33026	32705	32735	32524	36200	29243	32927	
194	0	32775	33238	32694	32632	36205	29237	32925	
195	0	32643	32690	32644	32557	36197	29243	32914	
196	0	32850	32723	33012	32450	36174	29231	32918	
197	0	32996	32511	32705	32869	36182	29247	32920	
198	0	32516	33089	32308	32475	36179	29229	32914	
199	0	32617	32454	32765	32681	36179	29224	32923	
200	0	32616	32037	32349	32489	36172	29230	32903	
201	0	33010	33004	32635	32982	36176	29241	32911	
202	0	32739	32602	32843	32742	36166	29217	32924	
203	0	32698	32619	32526	32339	36180	29242	32919	
204	0	32560	32675	32654	32694	36162	29243	32929	
205	0	33018	33197	32790	32795	36170	29224	32907	
206	0	32844	33272	32701	32936	36178	29237	32935	
207	0	32830	32258	32617	32635	36183	29223	32941	
208	0	32752	32694	32752	32642	36173	29220	32932	
209	0	33020	32735	32412	32703	36163	29238	32925	
210	0	32552	32678	32600	32647	36178	29218	32935	
211	0	32738	32723	32316	32823	36183	29224	32923	
212	0	32808	32743	32641	32839	36191	29211	32907	
213	0	32836	32647	32678	31903	36166	29222	32919	
214	0	32795	32749	32815	32664	36160	29219	32903	
215	0	32773	32734	32638	33074	36171	29224	32899	
216	0	32968	32604	32563	32659	36167	29214	32890	
217	0	32975	32619	32526	32775	36182	29206	32903	
218	0	32690	32647	32547	32704	36156	29182	32898	
219	0	32858	32803	32715	32531	36187	29175	32883	
220	0	32948	32638	32332	33545	36135	29183	32855	
221	0	32748	32723	32662	32437	36164	29183	32856	
222	0	32839	32533	32391	32824	36182	29182	32828	
223	0	32858	32647	32581	32513	36167	29165	32828	
224	0	32428	32159	32731	32668	36191	29155	32824	
225	0	32772	32771	32662	32743	36197	29159	32809	
226	0	32556	32359	32724	32587	36170	29161	32802	
227	0	33184	32358	32621	32828	36162	29179	32775	
228	0	33055	32555	32739	32835	36192	29177	32775	
229	0	32662	32583	32861	32384	36213	29170	32775	
230	0	32784	32492	32466	32820	36203	29186	32754	
231	0	32889	32592	32509	32739	36199	29191	32745	
232	0	32586	32482	32631	32815	36195	29209	32717	
233	0	32460	32894	32966	33085	36173	29211	32725	
234	0	32730	32736	32660	32738	36215	29237	32692	
235	0	33007	32830	32792	32751	36209	29232	32709	
236	0	32736	32539	32526	32506	36210	29233	32700	
237	0	32936	32723	32740	32211	36194	29233	32705	
238	0	33467	32711	32694	32395	36201	29287	32691	
239	0	32521	32380	32438	32367	36231	29307	32666	
240	0	32770	33442	32488	32771	36211	29302	32696	
241	0	32677	33595	32583	32903	36198	29311	32696	
242	0	32457	32874	32759	32702	36246	29330	32731	
243	0	32792	32608	32552	32696	36215	29339	32731	
244	0	32696	32628	32386	32729	36269	29353	32723	
245	0	32636	32938	32607	32843	36251	29364	32743	
246	0	32573	32879	32506	32647	36206	29382	32752	
247	0	32906	32610	32741	32755	36230	29382	32775	
248	0	32572	32983	32711	32717	36216	29378	32816	
249	0	33100	32576	32512	32790	36224	29359	32820	
250	0	32772	32559	32684	32655	36182	29318	32846	
251	0	33408	32967	32605	32791	36150	29319	32883	
252	0	32818	32694	32759	32810	36114	29344	32914	
253	0	32692	32411	32719	32715	36067	29366	32950	
254	0	32884	31907	32647	32604	36119	29337	33021	
255	0	33248	33491	32636	32694	36176	29273	33079	
256	0	32936	32485	32543	32703	36231	29177	33090	
257	0	32792	32646	32485	32591	36239	29153	33095	
258	0	33066	32595	32632	32701	36231	29171	33104	
259	0	32477	32685	32608	32704	36274	29223	33101	
260	0	32626	32730	32347	32634	36230	29222	33120	
261	0	32700	32538	32731	32831	36247	29184	33136	
262	0	32796	35878	32902	32925	36231	29131	33127	
263	0	32537	32759	32604	32623	36289	29066	33158	
264	0	32850	32354	32664	32611	36246	29039	33189	
265	0	32835	31858	32808	32674	36257	29048	33212	
266	0	33056	35498	32545	32694	36239	29062	33223	
267	0	33192	32680	32507	32771	36212	29033	33271	
268	0	32900	32361	32549	32566	36154	29074	33281	
269	0	33187	32045	32568	32742	36148	29159	33316	
270	0	32513	34195	32758	32706	36136	29215	33364	
271	0	32840	33388	32640	32692	36082	29270	33394	
272	0	32780	32771	32871	32722	36092	29350	33431	
273	0	32862	32070	32510	32749	36080	29382	33441	
274	0	32446	32327	32524	32672	36135	29381	33493	
275	0	33021	32298	32691	32686	36072	29398	33479	
276	0	32886	32450	32561	32824	36030	29472	33503	
277	0	32804	33769	32478	32774	36004	29610	33521	
278	0	32666	32583	32667	32788	36075	29626	33553	
279	0	33061	32198	32583	32775	36065	29590	33595	
280	0	32606	32662	32455	32702	36097	29540	33603	
281	0	32556	32622	32685	32894	36103	29543	33613	
282	0	33091	32860	32583	32765	36135	29574	33607	
283	0	32680	32729	32647	32998	36179	29575	33617	
284	0	32544	32671	32631	31960	36245	29539	33647	
285	0	32746	32342	32832	31572	36265	29477	33634	
286	0	32568	32432	32433	32739	36310	29385	33593	
287	0	32852	32912	32764	32725	36381	29295	33535	
288	0	33002	33374	32647	32797	36505	29122	33460	
289	0	32786	32439	32555	32214	36609	28914	33351	
290	0	33040	32231	32474	32754	36612	28694	33196	
291	0	32664	32547	32594	33664	36454	28765	33036	
292	0	32903	32877	32641	32775	36349	29110	32931	
293	0	32720	32443	32582	33089	36355	29370	32855	
294	0	32528	32413	32527	32451	36278	29364	32859	
295	0	32378	33562	32734	32685	36176	29357	32871	
296	0	32806	32453	32645	31661	36155	29437	32858	
297	0	32756	32725	32610	32897	36164	29522	32823	
298	0	32967	32666	32347	32106	36118	29632	32752	
299	0	33113	32672	33138	32730	36175	29702	32688	
300	0	32408	32434	32719	32915	36231	29755	32623	
301	0	32408	32693	32631	33463	36373	29729	32539	
302	0	32896	32727	32643	32612	36487	29682	32434	
303	0	32800	32798	32775	33248	36668	29599	32345	
304	0	32362	31044	32735	32560	36743	29520	32284	
305	0	32212	32679	32775	32551	36835	29519	32263	
306	0	32998	32599	32758	32590	36851	29553	32293	
307	0	32445	32704	32809	32727	36831	29661	32323	
308	0	32808	32193	32500	32615	36814	29703	32349	
309	0	32774	33031	32660	32775	36779	29691	32299	
310	0	32758	32827	32562	32627	36750	29677	32263	
311	0	32872	32386	32667	32466	36719	29711	32243	
312	0	32494	32614	32480	32608	36715	29735	32220	
313	0	32751	32635	32762	32319	36701	29762	32199	
314	0	33042	32575	32529	33206	36637	29772	32135	
315	0	32760	32738	32670	32451	36624	29719	32094	
316	0	32923	32578	32370	32555	36737	29651	32044	
317	0	32809	34279	32562	32847	36768	29521	32029	
318	0	32600	32568	32924	33017	36722	29497	32081	
319	0	32789	32619	32788	32064	36667	29595	32142	
320	0	32935	32662	32463	32595	36666	29703	32133	
321	0	32773	32568	32530	32654	36615	29690	32130	
322	0	32977	32694	32694	33055	36619	29682	32087	
323	0	32839	32659	32739	32831	36615	29694	32069	
324	0	32548	32566	32473	31794	36594	29680	32064	
325	0	33123	32814	32503	34102	36575	29669	32088	
326	0	32966	32784	32677	32806	36530	29676	32077	
327	0	32624	32749	32608	32151	36545	29689	32051	
328	0	33100	32717	32934	33063	36502	29669	32044	
329	0	33018	32902	32607	31452	36450	29639	32028	
330	0	32689	32797	32666	33415	36423	29639	32023	
331	0	33372	32636	32623	32667	36425	29674	32034	
332	0	32787	32832	32595	33342	36450	29734	32047	
333	0	32696	32690	32743	32537	36468	29743	32061	
334	0	32498	32647	32472	32791	36436	29750	32056	
335	0	33102	31418	32327	31517	36441	29760	32038	
336	0	32651	32629	32548	33706	36440	29776	32000	
337	0	32868	32621	32528	31718	36515	29801	31970	
338	0	32768	32728	32519	32359	36454	29804	31978	
339	0	32912	32726	32736	32626	36482	29783	31955	
340	0	32864	32620	32807	32807	36538	29757	31970	
341	0	32944	31965	32592	32724	36561	29740	31959	
342	0	32684	32846	32749	32530	36521	29739	31939	
343	0	32962	32295	32813	32391	36607	29753	31951	
344	0	32762	32498	32489	33123	36629	29750	31979	
345	0	32390	32523	32725	33159	36603	29758	31972	
346	0	32792	32645	33056	32695	36594	29754	31963	
347	0	32826	32589	32745	32728	36574	29791	31914	
348	0	32906	32463	32806	32637	36571	29786	31936	
349	0	32869	32728	32670	32741	36575	29761	31939	
350	0	32848	32560	32515	32878	36567	29737	31951	
351	0	32756	32647	32720	33687	36546	29757	31967	
352	0	32807	32612	32582	34066	36560	29756	31983	
353	0	32792	32035	32613	32886	36548	29747	31960	
354	0	32736	32647	32491	31766	36479	29696	31954	
355	0	32640	32555	32590	34553	36496	29700	32000	
356	0	33229	32715	32711	32407	36485	29715	32015	
357	0	32744	32706	32749	32122	36512	29686	32015	
358	0	32571	32545	32493	33060	36508	29672	32009	
359	0	32667	32708	32775	31591	36551	29656	32016	
360	0	32734	32621	32626	32436	36525	29632	31998	
361	0	32763	32597	32542	32737	36546	29613	32017	
362	0	32308	32620	32549	33177	36533	29591	32034	
363	0	32583	32659	32609	32592	36519	29609	32016	
364	0	32818	32719	32730	32615	36551	29620	31973	
365	0	32921	32815	32730	33084	36527	29575	31947	
366	0	33090	32918	32407	32554	36509	29614	31890	
367	0	33000	32579	32629	32014	36479	29594	31853	
368	0	32495	32860	32458	32787	36466	29615	31831	
369	0	32362	32903	32583	33003	36478	29547	31846	
370	0	33077	32795	32638	33036	36467	29511	31815	
371	0	32804	32617	32582	32775	36415	29520	31784	
372	0	32899	32491	32647	32438	36439	29549	31802	
373	0	32542	32643	32509	33271	36420	29570	31829	
374	0	32968	32684	32718	32706	36419	29603	31810	
375	0	32284	32797	32327	32766	36392	29605	31798	
376	0	32498	32624	32355	32388	36387	29597	31798	
377	0	33028	32762	32674	33951	36382	29567	31811	
378	0	32859	32748	32579	32478	36393	29531	31768	
379	0	32707	32660	32554	32647	36391	29515	31751	
380	0	32818	32568	32545	32539	36359	29503	31728	
381	0	32839	32603	32788	32387	36359	29515	31687	
382	0	32852	32825	32678	32946	36335	29511	31676	
383	0	33042	32789	32619	32647	36359	29511	31680	
384	0	32818	32775	32631	32738	36346	29501	31673	
385	0	32708	32560	32710	32647	36383	29513	31669	
386	0	32816	32774	32512	32730	36351	29498	31643	
387	0	32812	32688	32554	32891	36355	29469	31643	
388	0	32714	32745	32887	32738	36372	29471	31606	
389	0	32790	32745	32721	32729	36397	29467	31578	
390	0	32796	32708	32602	33502	36353	29451	31595	
391	0	32714	32549	32775	32581	36382	29476	31602	
392	0	32929	32903	32744	31826	36379	29510	31619	
393	0	32771	32725	32583	33959	36343	29534	31640	
394	0	32903	32508	32606	33229	36402	29552	31662	
395	0	32857	32717	32890	32575	36370	29553	31681	
396	0	32701	32763	32538	33408	36377	29575	31642	
397	0	32712	32671	32831	32540	36402	29540	31594	
398	0	32744	32698	32576	32677	36354	29503	31570	
399	0	32850	32711	32486	32551	36350	29508	31540	
400	0	32898	32865	32704	33071	36359	29527	31555	
401	0	32504	32613	32855	32852	36327	29494	31535	
402	0	32630	32608	32562	32680	36327	29497	31519	
403	0	33041	32647	32548	32051	36306	29467	31527	
404	0	32605	32847	32423	33241	36354	29469	31494	
405	0	32608	32479	32775	32317	36345	29437	31493	
406	0	32720	32538	32534	32336	36315	29407	31471	
407	0	32694	32545	32718	32539	36288	29366	31461	
408	0	32770	32683	32592	33371	36263	29383	31465	
409	0	32658	32718	32786	32598	36267	29354	31482	
410	0	32605	32669	32621	32723	36259	29356	31515	
411	0	32938	32684	32634	32696	36359	29319	31535	
412	0	33124	32534	32656	32775	36335	29261	31571	
413	0	32800	32734	32758	32206	36278	29277	31606	
414	0	32899	32669	32710	32239	36297	29319	31633	
415	0	32616	32740	32323	32183	36263	29319	31659	
416	0	32748	32855	32691	32420	36261	29319	31675	
417	0	32797	32762	32578	32188	36231	29292	31678	
418	0	32782	32737	32599	32274	36215	29303	31653	
419	0	32788	32654	32671	32876	36194	29325	31643	
420	0	32741	32583	32689	32897	36218	29307	31657	
421	0	32561	32668	32669	32563	36204	29319	31664	
422	0	32696	32701	32726	32579	36173	29350	31687	
423	0	32848	32679	32658	32335	36165	29362	31686	
424	0	32524	32673	32938	32436	36201	29390	31687	
425	0	32767	32883	32526	33849	36242	29379	31695	
426	0	32821	32682	32331	32095	36231	29389	31687	
427	0	32762	32711	32535	32874	36291	29391	31709	
428	0	32920	32742	32703	32809	36278	29395	31710	
429	0	32400	32732	32621	33170	36295	29394	31703	
430	0	32790	32753	32617	33601	36291	29366	31715	
431	0	32668	32656	32811	33122	36280	29374	31712	
432	0	32328	32535	32573	32524	36311	29374	31714	
433	0	32903	32857	32683	32732	36275	29357	31702	
434	0	32686	32749	32527	33106	36254	29358	31703	
435	0	32878	32769	32621	32998	36251	29375	31699	
436	0	32827	32911	32649	34027	36272	29371	31714	
437	0	32599	32793	32646	33305	36279	29310	31734	
438	0	32782	32496	32583	32108	36263	29338	31713	
439	0	33082	32704	32599	32350	36294	29346	31738	
440	0	32729	32551	32775	32687	36267	29402	31751	
441	0	32751	32486	32389	32583	36286	29402	31794	
442	0	33584	32557	32881	32850	36291	29386	31815	
443	0	32792	32775	32571	32775	36287	29396	31829	
444	0	32608	32730	32673	32494	36315	29371	31852	
445	0	32848	32740	32694	32105	36311	29381	31870	
446	0	32872	32751	32550	33960	36307	29387	31867	
447	0	32764	32626	32670	32532	36322	29396	31871	
448	0	32669	32615	32421	32471	36287	29407	31858	
449	0	32752	32549	32526	32945	36310	29362	31879	
450	0	32762	32794	32615	32929	36326	29383	31873	
451	0	32810	32666	32815	34483	36343	29370	31901	
452	0	32702	32626	32635	32361	36352	29350	31908	
453	0	32979	32718	32391	32608	36340	29364	31942	
454	0	32937	32623	32737	32771	36336	29396	31954	
455	0	32608	32517	32617	32697	36342	29423	31967	
456	0	32517	32660	32515	32827	36329	29421	31961	
457	0	32862	32731	32945	32736	36315	29414	31943	
458	0	32796	32497	32638	32623	36295	29395	31941	
459	0	32839	32664	32563	32469	36294	29387	31939	
460	0	32775	32771	32775	33771	36288	29386	31952	
461	0	32756	32679	32490	32669	36253	29413	31959	
462	0	32794	32711	32671	33006	36266	29383	31962	
463	0	32365	32800	32583	34774	36253	29376	31939	
464	0	32817	32667	32684	32711	36253	29388	31954	
465	0	32882	32797	32484	32815	36267	29417	31930	
466	0	32972	32543	32608	32347	36261	29412	31915	
467	0	32343	32694	32751	32583	36320	29372	31887	
468	0	32620	32622	32527	32357	36294	29363	31857	
469	0	32572	32775	32798	33714	36252	29334	31852	
470	0	32582	32589	32581	33033	36261	29345	31842	
471	0	32442	32380	32555	33287	36263	29383	31843	
472	0	32601	32754	32538	30914	36278	29437	31845	
473	0	32652	32545	32733	32507	36311	29468	31855	
474	0	32744	32665	32559	32540	36323	29477	31865	
475	0	32760	32357	32594	32655	36359	29506	31889	
476	0	32800	32571	32496	31781	36359	29548	31916	
477	0	32749	32822	32681	32698	36359	29574	31915	
478	0	32870	32630	32717	32727	36387	29621	31906	
479	0	32553	32622	32605	33287	36399	29631	31904	
480	0	32825	32710	32727	31952	36418	29664	31866	
481	0	32820	32541	32579	33901	36426	29664	31884	
482	0	32682	32519	32521	32601	36487	29663	31891	
483	0	32568	32871	32868	33612	36518	29671	31892	
484	0	32672	32698	32743	32522	36513	29676	31938	
485	0	33017	32831	32586	33178	36544	29687	31949	
486	0	32674	32720	32655	32154	36585	29659	31963	
487	0	32773	32698	32487	32654	36611	29635	31980	
488	0	32694	32607	32563	33504	36583	29604	31987	
489	0	32786	32647	32559	34665	36622	29545	32022	
490	0	32781	32819	32633	33414	36625	29510	32071	
491	0	32863	32865	32659	31695	36564	29498	32104	
492	0	32614	32893	32746	32617	36539	29552	32171	
493	0	32832	32837	32658	33055	36557	29638	32214	
494	0	32736	32573	32705	31815	36585	29703	32221	
495	0	32752	32775	32608	33082	36635	29721	32211	
496	0	32880	32658	32808	31979	36618	29689	32193	
497	0	32712	32702	32682	35311	36671	29640	32190	
498	0	32887	32670	32753	31865	36653	29671	32175	
499	0	32938	32609	32638	32334	36643	29719	32162	
500	0	32749	32696	32581	32338	36610	29730	32128	
501	0	33018	32775	32644	32383	36567	29701	32156	
502	0	32624	32826	32527	32728	36593	29730	32178	
503	0	32763	32403	32506	32339	36590	29720	32223	
504	0	32829	33215	32572	32051	36559	29733	32245	
505	0	32936	32410	32428	31410	36569	29703	32289	
506	0	32426	32397	32537	32476	36519	29725	32307	
507	0	32793	33051	32457	32098	36544	29741	32302	
508	0	32660	32775	32725	33542	36525	29737	32301	
509	0	32841	32756	32571	31187	36517	29686	32334	
510	0	32812	32664	32812	32644	36566	29628	32374	
511	0	32903	32569	32614	31975	36563	29663	32385	
512	0	32755	32711	32743	32772	36589	29719	32398	
513	0	32772	32647	32879	32640	36639	29787	32400	
514	0	32775	32722	32848	32534	36655	29823	32409	
515	0	32810	32455	32475	33494	36621	29812	32405	
516	0	32816	32662	32559	31318	36653	29831	32410	
517	0	32722	32800	32727	32621	36669	29849	32403	
518	0	32691	32927	32621	32179	36696	29863	32375	
519	0	32844	32854	32659	32135	36661	29815	32381	
520	0	32630	32366	32694	31004	36652	29806	32452	
521	0	32770	32775	32822	34903	36697	29831	32452	
522	0	32661	32361	32913	32283	36656	29861	32484	
523	0	32604	31037	32314	32101	36720	29923	32457	
524	0	32914	32298	32506	33920	36714	29917	32454	
525	0	32775	32191	32681	29961	36770	29900	32455	
526	0	32500	32595	32714	34934	36802	29901	32474	
527	0	32647	31957	32442	30493	36896	29928	32489	
528	0	32773	34720	32647	32327	36966	29904	32489	
529	0	32739	34075	32621	33341	36976	29911	32511	
530	0	32744	32696	32699	32586	36983	29935	32555	
531	0	32729	32775	32551	32647	37033	29978	32607	
532	0	32814	33120	32535	32640	37085	30009	32666	
533	0	32775	32116	32766	32056	37109	30018	32690	
534	0	32660	33063	32518	30134	37157	30050	32680	
535	0	32898	32409	32715	33264	37253	30057	32704	
536	0	32784	32166	32593	33895	37293	30082	32720	
537	0	32834	33168	32640	31886	37305	30128	32750	
538	0	32767	32399	32405	34886	37319	30172	32775	
539	0	32732	32947	32579	32469	37348	30239	32806	
540	0	32756	31311	32939	32587	37336	30241	32854	
541	0	32482	34782	32655	31984	37330	30250	32841	
542	0	32936	34063	32647	33261	37349	30310	32898	
543	0	32829	32025	32510	32223	37378	30330	32902	
544	0	32647	31646	32647	32169	37367	30369	32901	
545	0	32818	32028	32391	32561	37359	30394	32916	
546	0	32767	32511	32644	30524	37351	30469	32926	
547	0	32801	31718	32647	33818	37334	30539	32976	
548	0	32764	31149	32495	32526	37363	30551	32999	
549	0	32712	34139	32971	32505	37383	30583	32994	
550	0	32793	32566	32855	32919	37314	30623	32999	
551	0	32754	32684	32717	32455	37277	30617	33026	
552	0	32641	32627	32327	30850	37277	30648	33045	
553	0	32906	31617	32615	32056	37302	30631	33060	
554	0	32769	32466	32592	32263	37287	30608	33046	
555	0	32834	32731	32599	32752	37266	30567	33075	
556	0	32747	33855	32741	32524	37291	30535	33070	
557	0	32728	35463	33072	32248	37263	30540	33073	
558	0	32626	31672	32343	30632	37221	30551	33080	
559	0	32821	32911	32619	30889	37218	30531	33074	
560	0	32762	32624	32557	32509	37160	30494	33085	
561	0	32839	33057	32771	32591	37156	30446	33095	
562	0	32688	32759	32324	32707	37103	30419	33093	
563	0	32652	32643	32635	31297	37039	30390	33080	
564	0	32968	34357	32518	31674	36999	30370	33093	
565	0	32772	33730	32786	31974	36935	30327	33115	
566	0	32466	32362	32600	32598	36950	30272	33110	
567	0	32839	31020	32923	31847	36846	30177	33124	
568	0	32729	34529	32263	35250	36710	30093	33179	
569	0	32932	34031	32496	32880	36672	30059	33208	
570	0	32656	33523	33123	32363	36655	30046	33223	
571	0	32816	33256	32600	33065	36570	29991	33183	
572	0	32864	32871	32595	31970	36537	29977	33177	
573	0	32736	32371	32670	33174	36543	29995	33174	
574	0	32823	33167	32590	34059	36419	30001	33159	
575	0	32764	35234	32822	32226	36359	29983	33158	
576	0	32674	34053	32451	33986	36407	29998	33189	
577	0	32722	31981	32665	32568	36459	29952	33232	
578	0	32786	36463	32734	32944	36359	29975	33251	
579	0	32778	32507	32389	32670	36352	29979	33265	
580	0	32713	34097	32669	32708	36344	30006	33313	
581	0	32775	32461	32702	32682	36336	30004	33378	
582	0	32792	32467	32694	31303	36278	29956	33383	
583	0	32810	32557	32674	32894	36275	29995	33405	
584	0	32712	32640	32810	32663	36357	30065	33407	
585	0	32714	32927	32551	32482	36413	30127	33446	
586	0	32744	32671	32518	33100	36430	30043	33479	
587	0	32888	32579	32464	32380	36483	30019	33539	
588	0	32606	32480	32630	32615	36482	29902	33577	
589	0	32727	32915	32839	32391	36378	29883	33561	
590	0	32824	31324	32338	32668	36422	29824	33550	
591	0	32711	31840	32671	32766	36455	29751	33540	
592	0	32600	32627	32647	32850	36519	29717	33543	
593	0	32856	32519	32760	32715	36514	29650	33565	
594	0	32775	33627	33005	32950	36471	29607	33594	
595	0	32726	33006	32822	32455	36487	29643	33620	
596	0	32720	31978	32361	32317	36428	29625	33650	
597	0	32867	32676	32548	32504	36404	29593	33651	
598	0	32804	32762	32530	32593	36344	29507	33644	
599	0	32875	33269	32593	36972	36344	29467	33615	
600	0	32726	32688	32528	33210	36329	29458	33618	
601	0	32788	32710	32594	32530	36350	29437	33560	
602	0	32937	32714	32855	32123	36290	29427	33476	
603	0	32899	32902	32692	35993	36223	29466	33434	
604	0	32588	32484	32525	30463	36231	29503	33464	
605	0	33097	32671	32753	33383	36191	29524	33479	
606	0	32616	32827	32521	32459	36147	29511	33467	
607	0	32555	32438	32690	32055	36171	29467	33463	
608	0	32752	32598	32302	33908	36224	29408	33455	
609	0	32692	32539	32542	32190	36231	29422	33485	
610	0	32832	33159	32608	34766	36214	29367	33474	
611	0	32838	32692	32608	34191	36163	29343	33479	
612	0	32847	32647	32646	32118	36158	29329	33461	
613	0	32630	32881	32713	31423	36095	29324	33405	
614	0	32617	32609	32464	33911	36081	29303	33402	
615	0	32878	32548	32524	32799	36048	29278	33383	
616	0	32716	32586	33117	31855	36009	29191	33305	
617	0	32704	32478	32372	31288	35925	29156	33303	
618	0	32843	32642	32527	32877	35949	29148	33305	
619	0	32666	32815	32581	32197	35922	29138	33303	
620	0	32886	33001	32912	30490	35879	29123	33263	
621	0	32792	32975	32589	32658	35899	29143	33303	
622	0	32688	32625	32587	32617	35895	29148	33316	
623	0	32637	32541	32471	32591	35922	29176	33338	
624	0	32903	32910	32823	32891	35942	29234	33422	
625	0	32804	32771	32612	32848	35985	29191	33622	
626	0	32644	32807	32738	33073	36003	29225	33796	
627	0	32658	32742	32608	33151	35943	29234	33933	
628	0	32604	32403	32645	31771	35923	29181	34037	
629	0	32904	32786	32664	33333	35922	29157	34110	
630	0	32690	32626	32657	33586	35943	29208	34080	
631	0	32761	32367	32579	32658	35963	29277	34049	
632	0	32802	32566	32647	30644	35999	29350	34000	
633	0	32610	32451	32845	32316	35934	29474	34042	
634	0	32864	32507	32541	32542	35942	29477	34149	
635	0	32644	33037	32640	32706	35919	29562	34243	
636	0	32687	32791	32416	32683	35914	29575	34324	
637	0	32389	32677	32670	32799	35847	29479	34452	
638	0	33298	32606	32932	30891	35899	29492	34475	
639	0	32668	32658	32573	32309	35951	29557	34595	
640	0	32764	32794	32684	33602	35975	29608	34659	
641	0	32708	32734	32678	32831	35927	29634	34600	
642	0	32658	32723	32955	32438	35916	29639	34561	
643	0	32865	32810	32814	32706	35823	29623	34503	
644	0	32528	32720	32765	32683	35692	29680	34439	
645	0	33384	33442	32658	33490	35623	29696	34472	
646	0	32850	32327	32640	32634	35684	29621	34593	
647	0	32745	32315	32545	33477	35728	29555	34754	
648	0	32476	32873	32934	32861	35700	29518	34823	
649	0	32738	32796	32720	35600	35679	29575	34855	
650	0	33048	32812	32423	33003	35747	29655	34798	
651	0	32642	32793	32556	32135	35776	29757	34742	
652	0	32528	32426	33034	32825	35827	29797	34702	
653	0	32400	32646	32375	32646	35843	29849	34681	
654	0	32714	33451	32550	33001	35803	29865	34687	
655	0	32588	30691	32553	32563	35838	29838	34744	
656	0	32805	34587	32463	32819	35895	29817	34839	
657	0	32690	34843	32948	32978	35912	29823	35007	
658	0	32768	32359	32258	31012	35935	29909	35077	
659	0	32786	32467	32639	32810	35960	29981	35136	
660	0	32916	32676	32218	32999	35993	29958	35142	
661	0	32878	32331	32615	32933	36013	29927	35136	
662	0	32788	32301	32538	33355	36044	29910	35122	
663	0	32711	32300	32580	32963	36118	29955	35073	
664	0	32937	33009	32915	32506	36106	30053	35041	
665	0	32718	31602	32694	32467	36137	30083	35027	
666	0	32903	33606	32984	32900	36135	30118	35026	
667	0	32946	32363	32647	32576	36248	30198	35099	
668	0	32744	32411	32495	32679	36269	30119	35199	
669	0	32601	32694	32499	32691	36198	30041	35286	
670	0	32767	32802	32516	32839	36240	30026	35260	
671	0	32730	32765	32752	32597	36272	30080	35223	
672	0	32745	32399	32647	33383	36302	30144	35249	
673	0	32852	32474	32391	32252	36306	30215	35273	
674	0	32688	32810	32630	32848	36324	30274	35259	
675	0	32472	31645	32607	32571	36314	30279	35195	
676	0	32800	34182	32557	32747	36239	30224	35158	
677	0	32754	32338	32589	32615	36237	30195	35143	
678	0	32613	32531	32397	32743	36282	30173	35143	
679	0	32756	33889	32983	32858	36257	30168	35161	
680	0	32720	32135	32501	32607	36318	30215	35143	
681	0	32868	33799	32903	32627	36346	30265	35128	
682	0	32622	32328	32564	32765	36337	30322	35163	
683	0	32632	32628	32805	32897	36333	30352	35176	
684	0	32905	32848	32727	32773	36278	30383	35097	
685	0	32650	32732	32656	32914	36250	30387	35009	
686	0	32583	32475	33113	32435	36314	30337	34928	
687	0	32775	33159	32833	32488	36347	30323	34921	
688	0	32795	32331	32715	32850	36333	30317	34964	
689	0	32666	33588	32595	32972	36275	30319	35005	
690	0	32829	32607	32448	32388	36182	30261	35009	
691	0	32931	32351	32604	31587	36058	30142	34998	
692	0	32726	33287	32481	33581	36014	30177	34934	
693	0	32662	32678	32503	32743	36030	30269	34807	
694	0	32978	32734	32762	32683	36022	30383	34686	
695	0	32740	32775	32435	31574	36050	30431	34627	
696	0	32704	32994	32681	32111	36180	30416	34599	
697	0	32789	32647	32808	34242	36265	30290	34589	
698	0	32613	32792	32410	32411	36325	30058	34533	
699	0	32806	32307	32434	32610	36266	29916	34514	
700	0	32760	32729	32083	33026	36263	29882	34482	
701	0	32720	32821	32612	32841	36278	29855	34427	
702	0	32750	33062	32684	32583	36315	29847	34351	
703	0	32739	32395	32282	32071	36295	29895	34275	
704	0	32738	32507	32482	31508	36216	30003	34183	
705	0	32784	32066	32599	32007	36247	30051	34106	
706	0	32709	32399	32529	33050	36302	30047	34055	
707	0	32788	33571	32930	33220	36359	29957	34017	
708	0	32820	33374	32660	31999	36416	29821	33987	
709	0	32908	32213	32621	32967	36512	29680	33940	
710	0	32900	31603	32903	32989	36551	29559	33858	
711	0	32820	33453	32449	32681	36615	29582	33758	
712	0	32830	32440	32552	32756	36618	29609	33735	
713	0	32682	32615	32743	32289	36679	29719	33665	
714	0	32665	32825	32677	32086	36638	29746	33607	
715	0	32818	32919	32602	32669	36555	29771	33577	
716	0	32606	31556	32521	33159	36553	29787	33564	
717	0	32956	34235	32694	32673	36610	29711	33547	
718	0	32699	32178	32554	32827	36724	29550	33571	
719	0	32597	32688	32537	32767	36737	29415	33550	
720	0	32846	32743	32703	32447	36683	29401	33526	
721	0	32796	32966	32775	32647	36681	29471	33511	
722	0	32878	32814	32662	34855	36738	29587	33500	
723	0	33132	32538	32700	32631	36662	29641	33514	
724	0	32550	32731	32618	32971	36626	29743	33473	
725	0	32867	32296	32355	32127	36595	29687	33476	
726	0	32749	32879	32775	35055	36473	29624	33431	
727	0	32786	32411	32296	32415	36508	29726	33387	
728	0	32548	32646	32407	32481	36485	29767	33271	
729	0	33208	32754	32824	33222	36439	29842	33223	
730	0	32664	32632	32956	32883	36407	29870	33199	
731	0	32640	32681	32670	32698	36332	29913	33183	
732	0	32696	32807	32486	33107	36299	29893	33159	
733	0	32960	32729	32686	32455	36240	29813	33154	
734	0	32625	32670	32646	32603	36242	29751	33125	
735	0	32378	32637	32607	32583	36447	29539	33111	
736	0	33168	32711	32700	32656	36724	29140	33134	
737	0	32838	32671	32371	32839	36883	28632	33138	
738	0	32642	32698	32757	32306	36740	28408	33150	
739	0	32702	32653	32367	32503	36583	28651	33120	
740	0	32552	32711	32455	32615	36544	29120	32903	
741	0	32914	32420	32870	32668	36499	29479	32683	
742	0	32530	33923	32583	33000	36487	29522	32578	
743	0	32992	32426	32707	32677	36412	29401	32677	
744	0	32981	33607	32834	32839	36371	29255	32825	
745	0	32740	32071	32518	31952	36295	29191	32960	
746	0	32957	32446	32832	33456	36275	29245	33064	
747	0	32755	31643	32223	32383	36295	29306	33071	
748	0	32592	32567	32615	32583	36222	29336	33051	
749	0	32767	32493	32761	32875	36176	29329	33090	
750	0	32775	32939	32378	32291	36157	29319	33129	
751	0	32402	31606	32605	32667	36138	29187	33114	
752	0	33072	35932	32763	33111	36091	29095	33112	
753	0	32415	32312	32415	32534	36101	29095	33121	
754	0	32879	32539	32541	32629	36059	29114	33111	
755	0	32586	32066	32935	32594	36023	29117	33068	
756	0	33122	33810	32710	32177	35975	29188	32971	
757	0	33330	32548	32578	34107	35958	29217	32932	
758	0	32582	32563	32394	33395	35942	29232	32871	
759	0	32391	32870	32916	32508	35975	29223	32862	
760	0	32434	31789	32542	32688	36002	29301	32843	
761	0	33240	33099	32695	32897	36070	29302	32879	
762	0	32860	34439	32666	32881	36067	29252	32954	
763	0	32584	32327	32629	32803	36076	29251	33027	
764	0	32884	32358	32698	32839	36069	29222	33069	
765	0	32701	32663	32589	32606	36063	29215	33095	
766	0	32816	32963	32487	32646	36079	29237	33083	
767	0	32924	32748	32527	33200	36119	29225	33104	
768	0	33234	32719	32895	32912	36086	29174	33123	
769	0	32548	32498	32442	32668	36159	29136	33095	
770	0	32903	32295	32775	32999	36137	29135	33099	
771	0	32624	32850	32601	32849	36178	29100	33083	
772	0	33547	32705	32870	32947	36150	29035	33082	
773	0	32502	31864	32786	31576	36123	28974	33072	
774	0	32345	32992	32643	33042	36076	29015	33074	
775	0	33196	32391	32489	32559	36076	29036	33084	
776	0	32692	32592	32573	32716	36053	29063	33108	
777	0	32734	32824	32635	32666	36019	29022	33131	
778	0	32934	32731	32724	32647	35998	29001	33135	
779	0	32736	32546	33101	32901	35972	29024	33167	
780	0	32440	32391	32759	32557	35990	29047	33165	
781	0	32534	35374	32557	32872	35936	28999	33137	
782	0	32819	32430	32575	32722	35933	28954	33139	
783	0	32838	32738	32535	32828	35895	29002	33111	
784	0	32326	32711	32515	32877	35895	28954	33105	
785	0	33136	32736	32799	33156	35873	28957	33089	
786	0	32619	32513	32829	32391	35814	28950	33146	
787	0	32323	32492	32763	32705	35828	28983	33154	
788	0	32473	32665	32704	32187	35825	28985	33146	
789	0	32504	32586	32530	32321	35792	28976	33121	
790	0	32748	32672	32607	33067	35824	28999	33128	
791	0	32891	32703	32214	33896	35810	28996	33126	
792	0	32691	32801	32863	32485	35826	28959	33127	
793	0	32912	32139	32707	32379	35766	28932	33146	
794	0	32796	33590	32601	33067	35767	28932	33156	
795	0	32573	32669	32519	32144	35735	28976	33195	
796	0	32717	32384	32621	32180	35840	29039	33179	
797	0	32770	32556	32673	33715	35882	29033	33159	
798	0	32704	32614	32680	33577	35917	29031	33115	
799	0	32647	33133	32346	31343	35983	29038	33118	
800	0	32826	32798	32573	32923	36039	29014	33139	
801	0	32742	32699	32615	32966	36088	29047	33147	
802	0	32524	32510	32681	32048	36086	29063	33188	
803	0	32898	33230	32835	32711	36083	29095	33227	
804	0	32832	32896	32461	32766	36084	29117	33229	
805	0	32698	32890	32635	33349	36112	29154	33267	
806	0	32784	32424	32690	30942	36114	29163	33287	
807	0	32754	33799	32663	32926	36141	29227	33303	
808	0	32732	32198	32497	32354	36203	29279	33320	
809	0	32896	31803	32749	32025	36214	29330	33300	
810	0	32954	33311	32641	34818	36239	29340	33287	
811	0	32908	33275	32373	32726	36287	29403	33271	
812	0	32898	32426	32583	32979	36318	29431	33269	
813	0	32546	32615	32899	32197	36395	29471	33251	
814	0	32513	32085	32550	30531	36447	29445	33275	
815	0	32858	33127	32414	33044	36484	29505	33229	
816	0	32854	33850	32756	31993	36605	29600	33195	
817	0	32716	32615	32720	32583	36649	29638	33176	
818	0	32772	31149	32401	31122	36686	29665	33194	
819	0	32936	31686	32572	32664	36775	29735	33185	
820	0	32775	32565	32813	32863	36900	29741	33167	
821	0	32775	32133	32484	31478	36970	29696	33174	
822	0	32661	32554	32683	33432	36982	29606	33214	
823	0	32758	32631	32626	33281	37060	29554	33281	
824	0	32677	32947	32431	32893	37167	29511	33272	
825	0	32802	32359	32621	32455	37252	29449	33245	
826	0	32745	33357	32999	31663	37285	29415	33209	
827	0	32677	32999	32609	31463	37298	29490	33206	
828	0	32876	32435	32479	31915	37353	29581	33231	
829	0	32722	32063	32499	32850	37402	29679	33266	
830	0	32774	31635	32582	32596	37379	29735	33296	
831	0	32804	33464	32568	32735	37345	29823	33311	
832	0	32815	31734	32461	32788	37284	29926	33366	
833	0	32728	33214	32982	32816	37247	29917	33447	
834	0	32773	32623	32690	32557	37132	29985	33506	
835	0	32742	32943	32578	32927	37033	30051	33538	
836	0	32694	32400	32612	32752	36946	30102	33581	
837	0	32876	33830	32590	32887	36815	30111	33617	
838	0	32427	34356	32595	32939	36673	30116	33659	
839	0	32936	34818	32838	32882	36596	30071	33704	
840	0	32775	32423	32858	32754	36478	30054	33728	
841	0	32625	32289	32580	32715	36359	30098	33725	
842	0	32560	32509	32571	32651	36334	30128	33725	
843	0	32681	32093	32603	32626	36299	30111	33772	
844	0	32751	32438	32515	32581	36313	29999	33781	
845	0	32910	33330	32597	33382	36299	29854	33767	
846	0	32820	31977	32430	32850	36267	29772	33730	
847	0	32624	31885	32519	32806	36171	29748	33695	
848	0	32904	31601	32537	32809	36152	29737	33671	
849	0	32736	31970	32637	31442	36107	29735	33623	
850	0	33072	32463	32414	33537	36052	29659	33661	
851	0	32568	32512	32658	32567	36056	29608	33658	
852	0	32672	31921	32486	32482	36022	29515	33635	
853	0	32942	32592	32699	32724	36035	29471	33613	
854	0	32711	31925	32710	32707	36019	29405	33607	
855	0	32775	32810	32670	32711	35998	29353	33568	
856	0	32740	32758	32836	32758	35982	29359	33565	
857	0	32758	32333	32428	32682	35975	29352	33565	
858	0	32802	34750	32663	33025	35935	29286	33581	
859	0	32846	32879	32526	32894	35882	29300	33579	
860	0	32755	32570	32883	32637	35830	29267	33586	
861	0	32736	32453	32410	32899	35777	29229	33591	
862	0	32862	32410	32819	32212	35728	29202	33553	
863	0	32754	32751	32488	31878	35705	29138	33551	
864	0	32968	32336	32835	32642	35689	29122	33534	
865	0	32674	31075	32374	32775	35704	29052	33507	
866	0	32720	34098	32715	32695	35686	29069	33449	
867	0	33034	31055	32488	33000	35711	29070	33415	
868	0	32720	33965	32674	33187	35746	29108	33394	
869	0	32795	32247	32346	32728	35763	29069	33359	
870	0	32720	32530	32664	32623	35686	28999	33319	
871	0	32984	34819	33131	32744	35677	29004	33301	
872	0	32952	32135	32848	32714	35690	28999	33322	
873	0	32498	32615	33022	32722	35699	29003	33339	
874	0	32681	32735	32607	32583	35625	28999	33316	
875	0	32773	32665	32925	32541	35684	28942	33287	
876	0	32524	33031	32698	33147	35691	28964	33247	
877	0	32992	32663	32545	32619	35662	28924	33237	
878	0	33038	32838	32479	32848	35640	28871	33222	
879	0	32698	31292	32903	32762	35594	28845	33134	
880	0	32740	32219	32389	32721	35565	28855	33115	
881	0	32735	32638	32760	32715	35599	28849	33144	
882	0	32794	32311	32879	32768	35593	28862	33143	
883	0	32720	31905	32884	32660	35559	28854	33159	
884	0	32900	32519	32647	32889	35602	28852	33159	
885	0	32564	32394	32690	32729	35535	28812	33159	
886	0	32658	32492	32607	32834	35551	28807	33168	
887	0	32800	32669	32463	32612	35527	28768	33151	
888	0	32841	32293	32562	32812	35527	28787	33115	
889	0	32690	34161	32966	32717	35497	28799	33104	
890	0	32744	32607	32799	32717	35511	28800	33092	
891	0	32852	32899	32589	32638	35482	28783	33055	
892	0	32598	31835	32534	32472	35456	28715	33083	
893	0	32707	34783	32402	32911	35378	28679	33083	
894	0	32868	33042	32775	32704	35406	28656	33094	
895	0	32720	32504	32647	32882	35372	28643	33091	
896	0	32610	32638	32615	33015	35347	28679	33083	
897	0	32563	32546	32629	32836	35335	28708	33083	
898	0	32848	30774	32496	32590	35288	28648	33086	
899	0	32749	32325	32522	32647	35290	28637	33119	
900	0	32854	32023	32844	32756	35312	28659	33173	
901	0	32823	32583	32644	32751	35326	28631	33163	
902	0	32772	32734	32423	32711	35355	28603	33137	
903	0	32757	32412	32525	32607	35322	28581	33093	
904	0	32612	32731	32623	31985	35259	28554	33095	
905	0	32868	35917	32872	31750	35311	28589	33085	
906	0	32686	32695	32239	32767	35407	28650	33091	
907	0	33016	32208	32715	32775	35482	28704	33095	
908	0	32397	33248	32642	32852	35518	28739	33101	
909	0	32865	32613	32624	32757	35542	28788	33046	
910	0	32752	32774	32634	32794	35591	28767	33019	
911	0	32720	31742	33031	32722	35592	28722	32958	
912	0	32800	33854	32794	32827	35551	28720	32962	
913	0	32818	32473	32455	32786	35537	28674	33033	
914	0	32687	32745	32427	32742	35489	28653	33071	
915	0	32626	32576	32903	32775	35490	28654	33034	
916	0	32726	33201	32731	32727	35458	28679	33015	
917	0	32898	31208	32720	32529	35499	28652	33036	
918	0	32658	33159	32716	32826	35463	28646	33046	
919	0	32709	32153	32677	32610	35475	28666	33074	
920	0	32854	32449	32462	32635	35472	28688	33108	
921	0	32610	32700	32663	32647	35463	28700	33127	
922	0	32881	32788	32799	32718	35450	28679	33127	
923	0	33008	32830	32914	32822	35411	28657	33095	
924	0	32485	32735	32050	32775	35402	28646	33072	
925	0	32728	32582	32527	32633	35392	28628	33078	
926	0	32874	32675	32566	32765	35406	28649	33038	
927	0	32683	32647	32546	32814	35430	28585	33012	
928	0	32784	32489	32691	32774	35434	28568	32956	
929	0	32775	32065	32839	32763	35395	28588	32912	
930	0	32756	32262	32975	32926	35378	28580	32925	
931	0	32707	32527	32656	32623	35359	28592	32917	
932	0	32728	32621	32583	32646	35360	28531	32944	
933	0	32836	32380	32621	32797	35327	28496	32960	
934	0	32654	32992	32910	32765	35326	28512	32971	
935	0	32673	32595	32554	32703	35294	28460	32993	
936	0	33177	32647	32469	32811	35242	28475	33037	
937	0	32566	32626	32593	32748	35286	28495	33047	
938	0	32634	32934	32666	32615	35271	28495	33078	
939	0	32788	32587	32486	32667	35258	28505	33090	
940	0	32705	32399	32738	32772	35216	28506	33081	
941	0	32576	34243	32954	32879	35225	28529	33084	
942	0	32703	32334	32541	32698	35207	28546	33071	
943	0	33026	31806	32506	32694	35210	28525	33090	
944	0	32742	32758	32731	32619	35183	28530	33038	
945	0	32773	32788	33155	32754	35206	28523	32990	
946	0	32933	32613	32661	31799	35191	28511	32960	
947	0	32736	32499	32871	32102	35223	28540	32918	
948	0	32813	32611	32742	33385	35234	28577	32887	
949	0	32781	32626	32562	32739	35247	28564	32834	
950	0	32742	32775	32493	32804	35263	28529	32810	
951	0	32762	32635	32436	32803	35246	28546	32768	
952	0	32834	32698	32628	32752	35244	28551	32768	
953	0	32775	32563	32647	32847	35234	28513	32759	
954	0	32645	32636	32861	32830	35223	28502	32762	
955	0	32775	32685	32389	32792	35218	28463	32761	
956	0	32714	32526	32711	32729	35239	28441	32775	
957	0	32698	32696	32347	32647	35214	28406	32787	
958	0	32836	32729	32895	32822	35227	28407	32769	
959	0	32704	32576	32722	32723	35199	28388	32756	
960	0	32610	32704	32574	32628	35175	28429	32774	
961	0	32646	32815	32430	32692	35216	28439	32786	
962	0	33097	32814	32687	32900	35188	28453	32829	
963	0	32408	32721	32493	32585	35186	28480	32810	
964	0	32846	32775	32495	32839	35207	28486	32806	
965	0	32872	33252	32849	32771	35207	28456	32788	
966	0	32773	32804	33040	32868	35201	28414	32775	
967	0	32830	32583	32535	32685	35224	28452	32795	
968	0	32816	32674	32775	32834	35271	28480	32775	
969	0	32912	32775	32554	32762	35250	28503	32762	
970	0	32775	32743	32706	32594	35266	28502	32743	
971	0	32640	32550	32436	33300	35282	28519	32736	
972	0	32802	32735	32611	32638	35255	28503	32767	
973	0	32796	32538	32679	32710	35218	28511	32750	
974	0	32639	32680	32679	32982	35238	28515	32764	
975	0	32490	32898	32539	32791	35230	28576	32755	
976	0	32671	32745	32519	32622	35207	28607	32720	
977	0	33152	32742	33022	32628	35196	28585	32717	
978	0	32620	32711	32312	32731	35207	28500	32786	
979	0	32636	32762	32544	32788	35223	28498	32801	
980	0	32690	32578	32725	32775	35143	28558	32775	
981	0	32766	32875	32706	32666	35149	28532	32839	
982	0	33054	32754	32815	32775	35149	28471	32896	
983	0	32920	32611	32787	32726	35197	28466	32953	
984	0	32595	32681	32823	32767	35267	28468	32964	
985	0	32760	32719	32576	32787	35294	28465	32982	
986	0	32839	32775	32545	32815	35313	28451	32996	
987	0	32484	32736	32773	32742	35245	28449	33017	
988	0	32744	32730	32454	32802	35255	28438	32982	
989	0	32773	32789	32852	32647	35167	28455	32945	
990	0	32612	32707	32674	32799	35199	28473	32933	
991	0	33013	32669	32675	32862	35168	28477	32935	
992	0	32750	32573	32263	32633	35159	28499	32928	
993	0	32535	32635	32790	32836	35113	28519	32903	
994	0	32824	32615	32731	32758	35103	28512	32896	
995	0	32802	32581	32518	32775	35083	28504	32887	
996	0	33128	32792	32112	32727	35067	28519	32867	
997	0	32874	32775	32726	32703	35093	28481	32890	
998	0	32249	32775	32434	32699	35063	28454	32914	
999	0	33367	32742	32630	32679	35055	28449	32946	
1000	0	32500	32642	32751	32624	35044	28432	32942	
1001	0	32723	32663	32741	32758	35034	28450	32929	
1002	0	32762	32751	32682	32665	35055	28434	32919	
1003	0	32812	32752	32707	32701	35040	28487	32936	
1004	0	32618	32647	32519	32793	35126	28438	32967	
1005	0	32619	32775	32934	32839	35079	28382	32986	
1006	0	32786	32763	32614	32694	35065	28413	33018	
1007	0	32626	32655	32640	32839	35137	28414	33025	
1008	0	32746	32711	32720	32729	35127	28414	33026	
1009	0	32836	32676	32512	32738	35095	28411	32986	
1010	0	32685	32711	32591	32774	35108	28436	32994	
1011	0	32990	32686	32859	32799	35062	28426	33023	
1012	0	32497	32464	32576	32699	35063	28435	33050	
1013	0	32842	32623	32646	32665	35039	28483	33103	
1014	0	32763	32767	32688	32775	35036	28434	33157	
1015	0	32992	32708	32676	32739	35055	28400	33199	
1016	0	32638	32734	32717	32747	35013	28419	33245	
1017	0	32690	32626	32486	32729	35030	28422	33227	
1018	0	33024	32534	32415	32723	35053	28408	33245	
1019	0	32487	32831	32750	32832	35032	28388	33298	
1020	0	32462	32775	32851	32674	35044	28405	33306	
1021	0	32872	32673	32557	32745	35069	28406	33334	
1022	0	32763	32582	32570	32680	35017	28372	33351	
1023	0	32485	32567	32479	32675	35038	28361	33351	
1024	0	32952	32711	32617	32714	35014	28303	33311	
1025	0	32486	32523	32674	32732	34996	28300	33287	
1026	0	32886	32691	32477	32858	35037	28361	33268	
1027	0	32758	32637	32694	32711	35032	28382	33279	
1028	0	32754	32695	32946	32607	34998	28431	33319	
1029	0	33106	32625	33069	32865	34994	28448	33335	
1030	0	32674	32670	32297	32599	34967	28443	33337	
1031	0	32660	32612	32436	32603	35005	28461	33347	
1032	0	32970	32786	32739	32775	35013	28445	33359	
1033	0	32522	32765	32594	32742	34977	28485	33357	
1034	0	32816	32571	32721	32835	34998	28483	33350	
1035	0	33140	32839	32775	32819	35015	28506	33363	
1036	0	32634	32638	32603	32803	34970	28535	33399	
1037	0	32706	32485	32612	32614	35063	28534	33384	
1038	0	32704	32758	32593	32711	35006	28471	33349	
1039	0	32962	32728	32750	32679	35015	28461	33339	
1040	0	32724	32612	32846	32694	35033	28431	33320	
1041	0	32694	32763	32556	32775	35047	28438	33301	
1042	0	32716	32791	32711	32690	35089	28490	33275	
1043	0	32612	32629	32818	32803	35087	28508	33287	
1044	0	32930	32693	32603	32658	35071	28500	33287	
1045	0	32588	32642	32773	32822	35039	28472	33272	
1046	0	32963	32595	32690	32796	35058	28463	33259	
1047	0	32548	32749	32671	32813	35027	28355	33275	
1048	0	32702	32775	33093	32775	34973	28328	33246	
1049	0	32936	32775	32647	32775	34991	28320	33227	
1050	0	32952	32734	32385	32815	35008	28318	33248	
1051	0	32672	32599	33055	32717	35001	28319	33254	
1052	0	33356	32751	32601	32583	34999	28354	33221	
1053	0	33170	32729	32391	32858	34974	28389	33232	
1054	0	32907	32555	32692	33119	35027	28408	33195	
1055	0	32308	32854	32695	32951	35062	28429	33181	
1056	0	32676	32619	32867	32727	35047	28430	33150	
1057	0	32838	32773	32448	33055	35047	28412	33116	
1058	0	32898	32647	32658	32546	35088	28434	33060	
1059	0	32712	32598	32770	32182	35055	28422	33047	
1060	0	32790	32771	32846	32711	35111	28469	32996	
1061	0	32896	32798	32838	32730	35092	28525	32971	
1062	0	32851	32773	32626	32627	35079	28496	32985	
1063	0	32592	32754	32583	32798	35047	28443	32979	
1064	0	32614	32727	32506	32710	35063	28405	32910	
1065	0	32912	32680	32591	32822	35033	28375	32902	
1066	0	32711	32559	32761	32643	35039	28380	32902	
1067	0	32528	32681	32710	32647	35030	28370	32914	
1068	0	32602	32890	32654	32661	35023	28362	32893	
1069	0	32619	32603	32690	32647	35015	28346	32859	
1070	0	32660	32487	32530	32775	35015	28365	32902	
1071	0	32979	32590	32799	32756	35004	28369	32957	
1072	0	32586	32734	32632	32749	35029	28382	32973	
1073	0	32722	32711	32723	32764	35023	28381	32982	
1074	0	32753	32721	32694	32828	35037	28410	32994	
1075	0	32742	32583	32704	33351	35060	28422	33024	
1076	0	32760	32583	32582	32809	35011	28427	33037	
1077	0	33112	32711	32509	32817	34960	28409	33054	
1078	0	32997	32694	32668	32819	34997	28459	33079	
1079	0	32452	32647	32619	32667	35023	28475	33102	
1080	0	32997	32578	32650	32634	35026	28456	33095	
1081	0	32620	32730	32622	32727	34993	28402	33086	
1082	0	32902	32831	32347	32788	35021	28346	33061	
1083	0	33176	32808	32722	32699	35001	28349	33022	
1084	0	32763	32733	32630	32757	35037	28407	33010	
1085	0	32370	32718	32647	32632	35042	28379	32999	
1086	0	32813	32672	32879	32822	35030	28394	32994	
1087	0	32766	32753	32803	32775	35035	28430	32998	
1088	0	32818	32771	32818	32823	35027	28432	32976	
1089	0	32518	32519	32512	32613	35000	28420	32967	
1090	0	32672	32647	32626	32827	34992	28446	32967	
1091	0	32804	32582	32571	32720	34999	28460	32985	
1092	0	33262	32643	32679	32759	34979	28445	32998	
1093	0	32717	32834	32579	32839	34966	28439	33001	
1094	0	32609	32739	32367	32699	34972	28452	32995	
1095	0	32365	32640	32617	32780	34948	28413	33008	
1096	0	32850	32764	32527	32804	34914	28415	33034	
1097	0	32856	32775	32959	32702	34887	28406	33083	
1098	0	32852	32647	32742	32827	34879	28402	33110	
1099	0	32718	32628	32421	32831	34875	28350	33099	
1100	0	32925	32758	32552	32696	34859	28329	33121	
1101	0	32700	32539	32608	32728	34874	28337	33138	
1102	0	32756	32617	32295	32764	34844	28339	33164	
1103	0	32647	32621	33152	32766	34846	28325	33177	
1104	0	32916	32579	32653	32795	34823	28316	33179	
1105	0	32680	32744	32552	32798	34823	28272	33181	
1106	0	32444	32582	33113	32775	34791	28257	33199	
1107	0	32734	32775	32631	32839	34775	28244	33203	
1108	0	33106	32802	32848	32863	34780	28286	33234	
1109	0	32838	32851	32963	32775	34796	28266	33241	
1110	0	32748	32551	32818	32758	34800	28272	33231	
1111	0	32775	32734	32583	32684	34767	28251	33248	
1112	0	32628	32673	32487	32920	34795	28290	33221	
1113	0	32464	32640	32636	33155	34816	28283	33216	
1114	0	32922	32626	32635	32742	34859	28243	33169	
1115	0	32535	32617	32663	32743	34899	28230	33136	
1116	0	32720	32679	32459	33415	34882	28219	33106	
1117	0	32808	32680	32626	33063	34875	28227	33095	
1118	0	32713	32525	32287	32667	34879	28263	33105	
1119	0	32960	32485	32498	32656	34874	28275	33128	
1120	0	32630	32698	32391	32726	34872	28295	33123	
1121	0	32676	32735	32620	32855	34862	28287	33120	
1122	0	32922	32739	32695	32671	34823	28306	33081	
1123	0	32804	32754	32699	32642	34823	28308	33014	
1124	0	32662	32768	32694	32686	34792	28294	33000	
1125	0	32660	32590	32685	32263	34766	28303	32993	
1126	0	32607	32477	32843	32745	34775	28329	32963	
1127	0	32514	32935	32614	33027	34789	28343	32978	
1128	0	32788	32809	32665	33848	34795	28332	32999	
1129	0	32672	32674	32557	32099	34823	28318	32983	
1130	0	32756	32672	32809	32506	34823	28311	32984	
1131	0	32704	32647	32771	32766	34847	28345	32987	
1132	0	32625	32835	32875	33147	34850	28353	33006	
1133	0	32775	32609	32573	32883	34839	28335	33012	
1134	0	32840	32742	32615	32723	34867	28352	33022	
1135	0	32786	32756	32754	32722	34855	28327	33063	
1136	0	32740	32744	32941	32775	34851	28301	33065	
1137	0	33104	32749	32855	32748	34823	28269	33076	
1138	0	32383	32670	32499	32697	34802	28251	33083	
1139	0	32762	32711	32455	32723	34802	28253	33078	
1140	0	32828	32521	32463	32743	34800	28231	33117	
1141	0	32743	32738	32647	32657	34793	28263	33091	
1142	0	32786	32729	32685	32684	34733	28255	33077	
1143	0	32656	32707	32521	32637	34752	28271	33047	
1144	0	32994	32603	32575	32741	34718	28254	33050	
1145	0	32570	32839	32583	32607	34740	28267	33057	
1146	0	32926	32570	32638	32757	34747	28258	33043	
1147	0	32680	32502	32571	32836	34695	28283	33040	
1148	0	32641	32700	32605	32677	34723	28276	33056	
1149	0	32804	32640	32683	32775	34703	28327	33067	
1150	0	32337	32627	32528	32762	34713	28318	33083	
1151	0	33004	32615	32551	32696	34727	28320	33088	
1152	0	32601	32687	32635	32667	34722	28306	33091	
1153	0	33251	32687	32449	32786	34701	28279	33089	
1154	0	32865	32758	32508	32723	34695	28279	33095	
1155	0	32715	32763	32625	32725	34695	28306	33089	
1156	0	32681	32521	32667	32662	34722	28330	33076	
1157	0	32666	32763	32430	32609	34717	28295	33072	
1158	0	32624	32530	32722	32761	34729	28249	33065	
1159	0	33112	32743	32666	32689	34687	28235	33030	
1160	0	32729	32749	32679	32775	34695	28220	33017	
1161	0	32794	32765	32587	32822	34677	28227	33014	
1162	0	32698	32697	32501	32735	34675	28226	33027	
1163	0	32903	32719	32423	32658	34659	28212	32994	
1164	0	32762	32683	32822	32814	34668	28206	32987	
1165	0	32696	32545	32417	32654	34669	28199	32975	
1166	0	32785	32769	32830	32789	34664	28189	32989	
1167	0	32796	32773	32742	32771	34679	28201	32994	
1168	0	32903	32694	32501	32885	34663	28189	33019	
1169	0	33031	32706	32544	32775	34631	28179	33029	
1170	0	32457	32682	32705	32867	34647	28167	32996	
1171	0	33018	32605	32839	32798	34657	28162	32996	
1172	0	32564	32583	32745	32802	34695	28167	33013	
1173	0	33309	32717	32791	32704	34706	28189	32999	
1174	0	32702	32751	32727	32823	34683	28181	33014	
1175	0	32502	32775	32387	32775	34693	28178	32993	
1176	0	33209	32664	33008	32714	34690	28151	33011	
1177	0	32630	32756	32636	32623	34671	28144	33003	
1178	0	32736	32767	32544	32795	34647	28188	32997	
1179	0	32890	32789	32600	32643	34638	28187	32985	
1180	0	32986	32622	32839	32754	34607	28217	32958	
1181	0	32994	32655	32414	32797	34626	28240	32912	
1182	0	32579	32775	32795	32831	34624	28271	32935	
1183	0	32716	32711	32486	32705	34605	28251	32952	
1184	0	32939	32663	32854	32729	34631	28239	32941	
1185	0	32864	32719	32628	32694	34657	28242	32967	
1186	0	32782	32676	32564	32744	34631	28242	32976	
1187	0	32506	32521	32675	32775	34631	28257	32967	
1188	0	32872	32730	32487	32763	34646	28252	32956	
1189	0	32535	32745	32557	32731	34667	28257	32963	
1190	0	33211	32647	32452	32706	34655	28268	32983	
1191	0	32640	32706	32467	32755	34623	28231	32996	
1192	0	32775	32732	32662	32753	34631	28231	33001	
1193	0	32821	32664	32536	32844	34640	28216	33000	
1194	0	32740	32706	32626	32813	34638	28203	32985	
1195	0	32770	32656	32595	32717	34623	28212	32955	
1196	0	32700	32743	32693	32743	34643	28198	32919	
1197	0	32969	32554	32525	32717	34593	28219	32881	
1198	0	32637	32660	32439	32645	34655	28258	32860	
1199	0	32722	32704	32741	32699	34659	28248	32866	
1200	0	32690	32583	32551	32700	34653	28224	32890	
1201	0	32724	32755	32624	32655	34671	28198	32903	
1202	0	32820	32696	32599	32711	34725	28183	32912	
1203	0	32698	32685	32745	32597	34726	28135	32899	
1204	0	32828	32662	32320	32655	34723	28123	32881	
1205	0	32676	32752	32722	32790	34695	28117	32851	
1206	0	32557	32738	33230	33159	34701	28143	32839	
1207	0	32924	32595	32450	32729	34677	28159	32816	
1208	0	32954	32579	32576	32766	34715	28156	32823	
1209	0	32966	32519	32576	32716	34643	28167	32823	
1210	0	32544	32525	32507	32719	34651	28188	32788	
1211	0	32694	32771	32486	32742	34646	28196	32775	
1212	0	33106	32707	32549	32749	34654	28222	32767	
1213	0	32706	33007	32726	32876	34660	28243	32792	
1214	0	32948	32583	32609	32706	34677	28222	32807	
1215	0	32786	32483	32591	32641	34689	28250	32790	
1216	0	32769	32539	32690	32699	34671	28166	32807	
1217	0	32612	32762	32486	32775	34687	28210	32775	
1218	0	32788	32775	32498	32775	34746	28255	32787	
1219	0	32634	32562	32647	32786	34704	28286	32787	
1220	0	32505	32594	32449	32666	34775	28247	32803	
1221	0	32882	32590	32615	32667	34815	28256	32791	
1222	0	33115	32763	32455	32716	34795	28252	32784	
1223	0	32602	32635	32847	32770	34840	28216	32794	
1224	0	32918	32675	32663	32583	34869	28251	32800	
1225	0	32706	32621	32839	32790	34872	28286	32775	
1226	0	32584	32731	32551	32691	34823	28304	32756	
1227	0	32711	32693	32715	32694	34808	28285	32775	
1228	0	33088	32704	32662	32764	34811	28295	32775	
1229	0	32850	32458	32650	32746	34855	28328	32775	
1230	0	32721	32747	32647	32858	34807	28347	32775	
1231	0	32357	32757	32792	32679	34713	28304	32794	
1232	0	32955	32533	32563	32839	34707	28299	32775	
1233	0	33046	32742	32680	32752	34691	28261	32803	
1234	0	32432	32555	32711	32684	34695	28261	32802	
1235	0	32882	32740	32959	32792	34665	28263	32826	
1236	0	32772	32578	32740	32798	34699	28279	32835	
1237	0	32698	32813	32447	32674	34684	28254	32883	
1238	0	32902	32751	32476	32757	34720	28263	32874	
1239	0	32681	32833	32726	32817	34716	28247	32882	
1240	0	32598	32702	32607	32785	34745	28242	32861	
1241	0	32523	32763	32606	32775	34710	28239	32866	
1242	0	33140	32773	32647	32721	34704	28232	32855	
1243	0	32491	32704	32571	32775	34701	28226	32865	
1244	0	32500	32691	32643	32670	34733	28231	32864	
1245	0	32842	32754	32668	32755	34703	28227	32887	
1246	0	32720	32575	32674	32702	34722	28252	32888	
1247	0	32962	32707	32660	32684	34694	28258	32903	
1248	0	32744	32562	32615	32679	34704	28250	32923	
1249	0	32848	32758	32570	32819	34690	28240	32940	
1250	0	32863	32715	32647	32794	34695	28261	32936	
1251	0	32760	32733	32819	32798	34723	28234	32951	
1252	0	32666	32715	32537	32802	34690	28238	32951	
1253	0	32816	32763	32587	32839	34721	28231	32942	
1254	0	32750	32752	32461	32786	34673	28220	32933	
1255	0	32619	32707	32711	32611	34711	28203	32951	
1256	0	32729	32647	32927	32773	34704	28184	32942	
1257	0	32864	32705	32894	32627	34717	28194	32903	
1258	0	32647	32763	32738	32720	34687	28231	32893	
1259	0	33016	32794	32742	32673	34690	28237	32882	
1260	0	32902	32839	32599	32845	34695	28266	32859	
1261	0	32880	32583	32711	32663	34755	28274	32840	
1262	0	32604	32583	32647	32756	34710	28259	32853	
1263	0	32942	32775	32816	32822	34735	28237	32869	
1264	0	32600	32775	32569	32745	34742	28200	32856	
1265	0	33148	32756	32775	32759	34737	28179	32856	
1266	0	32612	32775	33022	32763	34735	28194	32839	
1267	0	32702	32512	32767	32824	34723	28197	32836	
1268	0	32848	32684	32615	32749	34752	28231	32830	
1269	0	32762	32662	32486	32638	34715	28231	32839	
1270	0	32515	32731	32946	32795	34724	28222	32825	
1271	0	32798	32710	32467	32775	34736	28246	32796	
1272	0	32652	32667	32990	32578	34759	28253	32803	
1273	0	32957	32595	32618	32795	34727	28266	32812	
1274	0	32753	32728	32922	32829	34769	28307	32828	
1275	0	32764	32578	32745	32771	34755	28312	32807	
1276	0	33258	32761	32798	32775	34775	28322	32820	
1277	0	32556	32525	32477	32630	34785	28289	32819	
1278	0	32996	32658	32519	32727	34795	28262	32834	
1279	0	32423	32718	32806	32583	34785	28263	32839	
1280	0	32602	32761	32706	32876	34798	28262	32838	
1281	0	32512	32871	32895	33095	34815	28300	32823	
1282	0	32576	32695	32639	32791	34783	28282	32863	
1283	0	32903	32664	32558	32702	34770	28261	32886	
1284	0	33094	32771	32742	32736	34783	28267	32891	
1285	0	32606	32630	32434	32763	34788	28291	32871	
1286	0	32502	32711	32306	32775	34771	28271	32839	
1287	0	32499	32758	32619	32643	34755	28254	32824	
1288	0	32653	32775	32579	32804	34742	28261	32838	
1289	0	32642	32818	32529	32803	34737	28246	32878	
1290	0	33037	32647	32487	32711	34725	28287	32873	
1291	0	32658	32567	32583	32717	34754	28272	32878	
1292	0	32647	32556	32526	32770	34751	28266	32883	
1293	0	32605	32745	32758	32823	34758	28253	32868	
1294	0	33136	32803	33075	32743	34730	28265	32832	
1295	0	33058	32562	32795	32647	34777	28264	32819	
1296	0	32774	32745	32522	32867	34771	28266	32806	
1297	0	32617	32772	32713	32718	34786	28254	32796	
1298	0	32753	32723	32694	32727	34759	28255	32815	
1299	0	32744	32775	32751	32730	34799	28246	32807	
1300	0	32594	32743	32749	32739	34788	28260	32797	
1301	0	33159	32603	32566	32710	34816	28250	32810	
1302	0	32740	32791	32642	32806	34763	28266	32819	
1303	0	32694	32773	32655	32888	34778	28279	32827	
1304	0	32512	32496	32903	32678	34758	28263	32818	
1305	0	33339	32767	32838	32743	34782	28232	32835	
1306	0	32564	32795	32736	32745	34755	28231	32829	
1307	0	32740	32674	32775	32845	34797	28254	32835	
1308	0	32603	32543	32775	32788	34767	28253	32832	
1309	0	33196	32742	32873	32724	34754	28274	32870	
1310	0	32490	32669	32724	32806	34754	28262	32885	
1311	0	32650	32640	32662	32682	34775	28273	32894	
1312	0	32617	32759	32823	32749	34771	28246	32899	
1313	0	32825	32532	32427	32658	34759	28274	32869	
1314	0	32382	32530	32643	32703	34742	28255	32840	
1315	0	32748	32670	32472	32786	34733	28231	32831	
1316	0	32797	32708	32455	32515	34755	28237	32831	
1317	0	32528	32647	32569	32740	34751	28208	32843	
1318	0	32756	32766	32579	32775	34750	28240	32873	
1319	0	32968	32703	32617	32817	34774	28231	32846	
1320	0	32538	32743	32576	32775	34754	28226	32836	
1321	0	32660	32694	32775	32735	34746	28231	32855	
1322	0	33008	32711	32647	32642	34734	28254	32839	
1323	0	32616	32746	32614	32855	34731	28248	32852	
1324	0	32708	32742	32715	32677	34747	28239	32857	
1325	0	32726	32717	32787	32671	34747	28239	32870	
1326	0	32680	32547	32238	32659	34758	28267	32875	
1327	0	32818	32507	32597	32722	34753	28271	32877	
1328	0	32903	32743	32284	32798	34771	28261	32873	
1329	0	32544	32601	32640	32818	34770	28285	32874	
1330	0	32626	32566	32614	32764	34753	28278	32885	
1331	0	32867	32615	32377	32775	34753	28286	32883	
1332	0	32681	32755	32581	32671	34747	28277	32903	
1333	0	32276	32729	32827	32775	34787	28295	32886	
1334	0	33147	32710	32775	32797	34754	28298	32888	
1335	0	32592	32704	32607	32775	34790	28301	32896	
1336	0	32934	32698	32694	32667	34795	28307	32903	
1337	0	32592	32739	32665	32670	34759	28275	32893	
1338	0	32476	32642	32610	32709	34771	28249	32898	
1339	0	32694	32629	32787	32803	34761	28230	32903	
1340	0	32784	32794	32522	32758	34717	28226	32886	
1341	0	32712	32667	32754	32806	34706	28211	32895	
1342	0	32824	32525	32677	32763	34692	28209	32903	
1343	0	32844	32685	32594	32753	34683	28214	32897	
1344	0	32489	32819	32666	32717	34687	28201	32912	
1345	0	32896	32740	32725	32647	34700	28167	32869	
1346	0	32784	32715	32543	32706	34713	28147	32870	
1347	0	32738	32676	32621	32690	34701	28167	32872	
1348	0	32583	32565	32281	32714	34691	28199	32860	
1349	0	32718	32594	32640	32822	34690	28221	32874	
1350	0	32788	32736	32566	32845	34707	28251	32881	
1351	0	32870	32602	32609	32811	34695	28256	32893	
1352	0	32784	32735	32615	32823	34736	28279	32888	
1353	0	32752	32698	32580	32692	34726	28262	32891	
1354	0	32864	32632	32656	32638	34746	28265	32900	
1355	0	32914	32734	32544	32593	34759	28232	32918	
1356	0	32758	32795	32796	33078	34726	28223	32892	
1357	0	32516	32688	32951	32687	34742	28205	32887	
1358	0	32800	32734	32816	32597	34754	28235	32882	
1359	0	32775	32571	32541	33212	34759	28251	32889	
1360	0	32667	32738	32642	32636	34799	28240	32881	
1361	0	32866	32690	32555	32642	34775	28233	32853	
1362	0	32826	32705	32538	32686	34755	28242	32831	
1363	0	32588	32679	32723	32808	34739	28221	32815	
1364	0	32792	32720	32416	32799	34736	28235	32854	
1365	0	32984	32647	32183	32775	34695	28251	32858	
1366	0	32868	32726	32461	32727	34716	28274	32863	
1367	0	32623	32675	32447	32711	34733	28268	32862	
1368	0	32820	32644	32626	32718	34684	28223	32864	
1369	0	32774	32724	32819	32804	34685	28197	32848	
1370	0	32782	32647	32534	32644	34704	28212	32814	
1371	0	32775	32635	32475	32761	34677	28240	32833	
1372	0	33006	32775	32948	32805	34690	28258	32823	
1373	0	32624	32505	32803	32790	34695	28274	32828	
1374	0	32711	32848	32751	32835	34684	28271	32831	
1375	0	32891	32746	32839	32762	34691	28267	32820	
1376	0	32667	32653	32427	32596	34715	28221	32846	
1377	0	32817	32691	32784	32595	34719	28208	32863	
1378	0	32730	32891	32571	32773	34727	28222	32876	
1379	0	32714	32773	32516	32800	34727	28255	32887	
1380	0	32558	32740	32384	32613	34722	28256	32900	
1381	0	33311	32745	32410	32756	34736	28236	32923	
1382	0	32334	32711	32723	32775	34706	28235	32914	
1383	0	32738	32629	32589	32768	34684	28238	32927	
1384	0	32406	32775	32498	32797	34627	28220	32949	
1385	0	33223	32566	32522	32681	34659	28203	32948	
1386	0	32336	32720	32556	32886	34665	28189	32954	
1387	0	32723	32633	33056	32792	34623	28185	32955	
1388	0	32716	32763	32219	32938	34621	28214	32922	
1389	0	32827	32693	32677	32647	34645	28248	32925	
1390	0	32764	32664	32767	32523	34629	28259	32916	
1391	0	32624	32773	32665	32807	34638	28219	32899	
1392	0	32676	32751	32660	32742	34700	28163	32902	
1393	0	32814	32698	32507	32880	34631	28162	32879	
1394	0	32761	32711	32985	32739	34617	28138	32891	
1395	0	32518	32668	32581	32738	34650	28135	32858	
1396	0	32656	32762	32723	32718	34683	28118	32888	
1397	0	32866	32603	32317	32918	34716	28163	32892	
1398	0	32911	32826	32401	32496	34681	28157	32863	
1399	0	32488	32820	32510	32671	34626	28158	32848	
1400	0	32464	32479	32731	32642	34669	28147	32841	
1401	0	32768	32651	32502	32192	34695	28147	32860	
1402	0	32734	32686	32248	32708	34740	28167	32837	
1403	0	32914	32663	32646	32620	34672	28217	32830	
1404	0	32207	32347	32527	32801	34710	28220	32818	
1405	0	32514	32651	32480	32851	34695	28262	32821	
1406	0	32866	32646	33149	33626	34700	28226	32851	
1407	0	33064	32647	32487	32578	34693	28225	32867	
1408	0	32596	32637	32647	32821	34718	28246	32862	
1409	0	32760	32674	32789	32791	34759	28251	32847	
1410	0	32614	32631	32631	32742	34769	28226	32807	
1411	0	32667	32519	32605	32473	34733	28246	32815	
1412	0	32608	32635	32430	33439	34788	28272	32835	
1413	0	32850	32708	32606	32695	34745	28287	32802	
1414	0	32802	32727	32559	32619	34789	28271	32806	
1415	0	32918	32790	32663	32851	34785	28271	32807	
1416	0	32647	32688	32531	32743	34815	28303	32802	
1417	0	32811	32677	32391	32627	34841	28318	32787	
1418	0	32762	32562	32455	32801	34857	28319	32791	
1419	0	32504	32752	32855	32711	34882	28378	32804	
1420	0	33065	32856	32580	32863	34798	28342	32799	
1421	0	32834	32796	32645	32775	34779	28291	32807	
1422	0	32632	32754	32766	32702	34874	28319	32857	
1423	0	32872	32671	32735	32796	34852	28359	32876	
1424	0	33008	32809	32839	32749	34759	28357	32875	
1425	0	32813	32581	32878	32791	34721	28335	32895	
1426	0	32846	32512	32593	32663	34755	28323	32903	
1427	0	32658	32629	32927	32660	34747	28322	32913	
1428	0	32868	32643	32766	32687	34750	28275	32927	
1429	0	32572	32583	32583	32775	34779	28266	32931	
1430	0	32499	32686	32981	32941	34807	28292	32937	
1431	0	32586	32589	32679	32885	34815	28275	32919	
1432	0	33097	32671	32284	32698	34814	28272	32917	
1433	0	32741	32702	32433	32775	34844	28314	32925	
1434	0	33061	32621	32550	32673	34775	28319	32930	
1435	0	32650	32498	32413	32851	34823	28288	32894	
1436	0	32462	32583	32827	32643	34814	28301	32850	
1437	0	33008	32639	32455	32775	34807	28283	32843	
1438	0	32510	32815	32731	32636	34782	28243	32858	
1439	0	32762	32713	32354	32903	34790	28198	32895	
1440	0	32557	32549	32857	32928	34770	28209	32933	
1441	0	32632	32583	32530	32775	34770	28227	32933	
1442	0	32608	32711	32446	32775	34788	28243	32924	
1443	0	32893	32758	32751	32810	34809	28218	32941	
1444	0	32710	32645	32731	32711	34758	28205	32950	
1445	0	32547	32826	32927	32846	34745	28241	32925	
1446	0	32500	32786	32655	32684	34743	28226	32946	
1447	0	32786	32516	32591	32743	34719	28235	32954	
1448	0	32704	32679	32607	32843	34710	28230	32954	
1449	0	32630	32463	32634	32637	34677	28237	32937	
1450	0	33136	32322	32935	32692	34685	28267	32914	
1451	0	32780	33598	32955	32617	34715	28283	32984	
1452	0	32960	32647	32898	32870	34723	28249	33029	
1453	0	32646	32790	32623	32594	34720	28215	33048	
1454	0	33268	32429	32485	32759	34722	28216	33043	
1455	0	32766	33039	32630	32804	34759	28241	33024	
1456	0	32595	32758	32773	32734	34759	28272	33017	
1457	0	33078	32574	32727	32741	34726	28319	33018	
1458	0	32448	32686	32736	32807	34737	28295	33027	
1459	0	32450	32617	32378	32683	34750	28312	33031	
1460	0	33159	32717	32818	32816	34747	28316	33071	
1461	0	32486	32199	32811	32690	34792	28279	33114	
1462	0	33287	32512	32774	32726	34759	28321	33117	
1463	0	32632	32604	32434	32867	34791	28352	33159	
1464	0	32804	32711	32839	32695	34754	28337	33203	
1465	0	33010	32515	32762	32685	34727	28344	33179	
1466	0	32858	32802	32563	32593	34781	28307	33195	
1467	0	32599	32661	32682	32255	34752	28288	33159	
1468	0	32583	32123	32775	32738	34787	28274	33075	
1469	0	33160	33053	32498	32952	34780	28204	33048	
1470	0	32688	32689	32699	32785	34733	28154	33042	
1471	0	32768	32493	32649	32962	34787	28141	33044	
1472	0	33180	32737	32615	32743	34773	28151	32981	
1473	0	32826	32839	33410	33009	34792	28134	32909	
1474	0	32768	32944	32338	37446	34758	28183	32826	
1475	0	32918	32717	32543	33942	34823	28261	32775	
1476	0	32166	32612	32512	32704	34779	28280	32800	
1477	0	32622	32632	32973	32695	34795	28305	32842	
1478	0	32592	32721	32391	32884	34776	28344	32822	
1479	0	32388	32638	32945	32735	34785	28355	32755	
1480	0	32622	32711	32351	32743	34793	28272	32736	
1481	0	32462	32616	32525	32966	33379	27677	32242	
1482	0	32538	32278	32826	32807	35172	27962	32564	
1483	0	34553	33025	32694	32865	34518	28100	32691	
1484	0	32282	32682	32925	32773	35117	27961	32900	
1485	0	32570	32256	32599	32684	35106	28381	33159	
1486	0	32536	32515	32499	32929	35167	28515	33203	
1487	0	33182	32091	32640	33199	35335	28764	33281	
1488	0	32963	32672	32587	32835	35352	28923	33253	
1489	0	32132	32743	32710	32638	35407	28893	33221	
1490	0	32888	32775	32179	32209	35598	28436	33251	
1491	0	32775	32606	32647	32606	34640	28279	31682	
1492	0	32347	32662	32399	32683	34081	27653	32145	
1493	0	32829	32643	32359	32621	32864	28295	32365	
1494	0	32974	32767	32530	33026	35202	28482	32758	
1495	0	32287	32738	32557	32875	34811	28421	32628	
1496	0	32908	32802	32600	32788	34843	28326	32495	
1497	0	32786	32742	32754	32588	34951	28363	32455	
1498	0	32587	32652	32330	32752	34847	28379	32477	
1499	0	32892	32757	32809	32647	34877	28307	32530	
1500	0	33104	32647	32602	32718	34920	28257	32486	
1501	0	32987	32654	32582	32391	34812	28234	32439	
1502	0	32673	32583	32263	33887	34861	28207	32453	
1503	0	32542	32767	33126	32728	34915	28207	32486	
1504	0	33512	32701	32432	32870	34866	28265	32453	
1505	0	32354	32879	32864	32913	34885	28277	32491	
1506	0	32324	32717	32723	32901	34894	28214	32549	
1507	0	32916	32720	32775	32703	34823	28238	32570	
1508	0	33064	32727	32525	32617	34951	28281	32687	
1509	0	32690	32566	32764	32502	34918	28316	32694	
1510	0	32934	32870	32895	32885	34913	28278	32762	
1511	0	32526	32790	32743	32954	35011	28293	32722	
1512	0	32423	32825	32650	32393	34951	28278	32632	
1513	0	32810	32546	32535	32825	34918	28318	32630	
1514	0	33415	32616	32236	31299	35087	28378	32673	
1515	0	33272	32503	32289	31702	35084	28342	32600	
1516	0	32324	32730	32226	33635	34973	28282	32570	
1517	0	33018	32689	32455	32725	35011	28240	32678	
1518	0	33613	32528	32470	32796	34972	28263	32663	
1519	0	33102	32543	32415	32811	34946	28341	32664	
1520	0	33150	32667	32890	32527	34926	28448	32678	
1521	0	32982	32647	31799	31574	34896	28451	32759	
1522	0	32694	32691	32511	32839	34938	28442	32752	
1523	0	32699	32707	32755	32839	34904	28289	32706	
1524	0	33312	33079	33139	31540	34863	28196	32743	
1525	0	32316	32551	32250	33539	34789	28183	32723	
1526	0	32934	32481	33368	32420	34823	28238	32516	
1527	0	33197	32929	32664	32791	34872	28342	32452	
1528	0	33144	32659	32669	32613	34894	28478	32711	
1529	0	32720	32932	33267	33037	34854	28381	33000	
1530	0	32674	32775	32587	33519	34909	28413	33137	
1531	0	32822	32570	32583	32626	34912	28457	33199	
1532	0	32770	32871	32685	32738	34984	28483	33217	
1533	0	32582	32663	32669	32775	34974	28442	33238	
1534	0	32489	32909	32635	32823	34989	28400	33314	
1535	0	33702	32524	32748	32720	35039	28401	33351	
1536	0	32457	32709	32647	32690	35047	28394	33298	
1537	0	32484	32510	32858	32694	35066	28374	33306	
1538	0	32642	32506	32742	31987	35030	28399	33344	
1539	0	32632	32918	32918	34173	35004	28423	33382	
1540	0	32397	32674	32417	32656	34911	28496	33374	
1541	0	32754	32699	32519	32786	34829	28520	33382	
1542	0	32488	32609	32759	32637	34771	28479	33477	
1543	0	32481	32561	32803	32748	34729	28456	33528	
1544	0	32834	33001	32614	32677	34765	28434	33569	
1545	0	32553	32576	32554	32812	34759	28431	33573	
1546	0	32600	32879	32714	32797	34750	28453	33542	
1547	0	32784	32471	32217	32590	34749	28403	33555	
1548	0	32528	32669	32339	32664	34655	28388	33629	
1549	0	32798	32614	32687	32105	34688	28335	33713	
1550	0	32832	32614	32074	32903	34740	28272	33749	
1551	0	32592	32685	32499	33042	34763	28276	33671	
1552	0	32686	32643	32260	32599	34823	28302	33681	
1553	0	32822	32374	32019	32237	34822	28438	33799	
1554	0	32684	32919	32829	32339	34871	28397	33777	
1555	0	32954	32588	32381	32498	34858	28359	33671	
1556	0	32676	32607	32767	32468	34820	28460	33494	
1557	0	33377	32630	32206	31831	34881	28582	33403	
1558	0	32578	32850	32248	34566	34813	28556	33521	
1559	0	32763	32740	31920	30310	34722	28353	33603	
1560	0	32527	32437	32989	32641	34679	28156	33494	
1561	0	32558	32371	34108	32775	34713	28157	33206	
1562	0	33464	32625	32275	32654	34723	28395	33247	
1563	0	32274	32609	31670	33923	34781	28578	33394	
1564	0	33544	32658	32647	32014	34784	28539	33516	
1565	0	32033	33702	33129	32631	34759	28476	33517	
1566	0	31844	33415	32591	32950	34786	28569	33434	
1567	0	34277	32996	32983	31849	34893	28617	33561	
1568	0	31984	32509	31351	31700	34930	28491	33742	
1569	0	32532	32587	32702	32253	35047	28417	33760	
1570	0	33142	32919	33272	31808	35078	28432	33783	
1571	0	32922	32726	29739	32942	35187	28588	33783	
1572	0	32604	32647	33647	32756	35246	28558	33611	
1573	0	33485	32722	33634	32453	35253	28607	33557	
1574	0	33381	32610	32670	32582	35234	28627	33594	
1575	0	31729	32494	32312	33323	35133	28566	33623	
1576	0	33142	32560	32505	32570	35024	28533	33574	
1577	0	32788	32617	32391	32110	34938	28538	33559	
1578	0	31899	33017	31840	33047	34885	28522	33603	
1579	0	32278	32066	33089	32738	34859	28566	33730	
1580	0	32744	33018	32296	32506	34938	28538	33899	
1581	0	33008	32759	31784	32815	34967	28423	34057	
1582	0	32796	32843	33195	32029	34938	28288	34107	
1583	0	32452	32246	32007	33711	34887	28282	34105	
1584	0	33760	33024	33269	33423	34870	28423	34144	
1585	0	32130	32430	31848	31187	34917	28546	34078	
1586	0	32658	33397	32684	31414	34902	28619	34053	
1587	0	31794	32473	33071	32192	34998	28711	34066	
1588	0	32914	32064	32303	32336	34973	28762	34146	
1589	0	32840	32730	32991	36081	34994	28816	34257	
1590	0	33192	33658	32669	32435	34995	28770	34305	
1591	0	32468	32555	33334	32714	34963	28737	34258	
1592	0	32436	33199	31671	32798	35025	28902	34340	
1593	0	32962	30890	31545	32879	35047	28904	34463	
1594	0	33243	32230	32683	32706	35058	28903	34590	
1595	0	32277	32768	32768	32873	34996	28756	34737	
1596	0	33253	32791	33049	33035	35003	28534	34759	
1597	0	33512	28784	33912	32859	34964	28422	34774	
1598	0	33991	32150	32565	34051	34944	28404	34819	
1599	0	33512	32458	32676	35556	35098	28500	34794	
1600	0	32061	32576	32037	36837	35188	28714	34704	
1601	0	32708	32031	32130	32228	35227	28740	34587	
1602	0	33734	32927	33159	32886	35365	28807	34434	
1603	0	32842	32458	31949	33399	35372	28863	34226	
1604	0	32556	32599	32263	31307	35332	28902	34112	
1605	0	33096	33042	31878	29330	35238	28788	34115	
1606	0	32685	32763	31974	31251	35186	28724	34111	
1607	0	32720	32607	34944	32694	35172	28700	34035	
1608	0	34418	32555	33881	31584	35136	28630	33922	
1609	0	32516	32438	31384	32342	35166	28660	33814	
1610	0	32432	32903	35770	31097	35162	28819	33756	
1611	0	33840	32587	30662	35327	35165	28848	33662	
1612	0	33258	32542	32801	33518	35164	28927	33542	
1613	0	32775	32737	33001	32766	35165	28943	33475	
1614	0	32557	32775	32562	33366	35180	28863	33607	
1615	0	33506	32621	32535	31106	35137	28743	33655	
1616	0	33466	32450	31855	33055	35101	28732	33630	
1617	0	32224	32976	31885	31750	35149	28700	33581	
1618	0	33849	29780	32246	32632	35182	28730	33562	
1619	0	31113	37156	31158	33132	35318	28869	33661	
1620	0	33350	31891	32263	32685	35416	28890	33833	
1621	0	32891	32258	33215	30159	35382	28768	34024	
1622	0	32012	32691	31563	33810	35314	28743	34195	
1623	0	32234	32751	32660	32611	35351	28643	34209	
1624	0	32570	32628	31807	32587	35255	28576	34083	
1625	0	32804	32629	32711	32775	35247	28665	33991	
1626	0	32788	32500	33607	32051	35279	28717	33945	
1627	0	33762	32732	32483	33022	35258	28805	34056	
1628	0	33888	32872	31622	32424	35264	28876	34199	
1629	0	32215	33435	33117	32806	35262	28868	34189	
1630	0	32090	33471	32903	32789	35302	28905	34119	
1631	0	33362	32217	31422	32645	35311	28872	34246	
1632	0	32911	30260	33479	32505	35258	28842	34415	
1633	0	32306	38086	32367	32978	35269	28886	34573	
1634	0	33256	32203	32775	32767	35294	28919	34657	
1635	0	32048	31978	32591	32664	35330	28841	34661	
1636	0	33622	32703	33269	32786	35271	28756	34663	
1637	0	35240	32839	32938	32457	35271	28706	34575	
1638	0	33689	32426	31188	32966	35223	28719	34480	
1639	0	31438	32720	32223	33471	35271	28720	34450	
1640	0	33896	32706	32575	34045	35282	28725	34466	
1641	0	31712	32391	32746	32737	35322	28810	34515	
1642	0	32832	32734	33016	32897	35354	28859	34356	
1643	0	33120	32791	33140	32936	35324	28873	33968	
1644	0	32834	32511	32994	32263	35394	28842	33687	
1645	0	33979	33014	33080	33814	35366	28906	33728	
1646	0	33619	33314	31893	32455	35399	28900	33979	
1647	0	34612	32754	32318	33049	35414	28988	34113	
1648	0	32331	32070	33896	31927	35451	29027	34205	
1649	0	32956	32684	32369	32902	35493	28991	34205	
1650	0	32915	33778	32545	32884	35482	28935	34104	
1651	0	32108	32231	33220	32698	35451	28857	33957	
1652	0	34072	32688	32301	32663	35417	28839	33849	
1653	0	33577	32477	32902	32410	35427	28818	33836	
1654	0	33356	32809	32760	32655	35406	28891	33793	
1655	0	32856	32422	32935	26646	35331	28901	33782	
1656	0	32128	32595	32199	32633	35334	28843	33777	
1657	0	32760	32458	32165	33346	35386	28808	33662	
1658	0	32762	33022	32640	33380	35437	28830	33426	
1659	0	32765	32499	32954	33069	35333	28867	33299	
1660	0	32680	32659	34685	32821	35321	28891	33223	
1661	0	32581	32459	33419	32462	35328	28838	33143	
1662	0	32350	32723	32229	32775	35318	28836	33059	
1663	0	32537	32678	32122	32280	35294	28807	33022	
1664	0	33006	32512	32059	31361	35271	28776	33042	
1665	0	32689	32806	32465	32726	35242	28679	33179	
1666	0	33176	32347	32346	34527	35282	28620	33333	
1667	0	33083	33099	32735	29655	35347	28573	33440	
1668	0	32564	32647	32476	32399	35437	28661	33460	
1669	0	33195	32520	32151	32903	35445	28645	33355	
1670	0	32668	32827	32166	32603	35446	28636	33373	
1671	0	32484	32793	32939	32364	35378	28587	33499	
1672	0	33368	32599	32263	32622	35291	28563	33511	
1673	0	32022	32583	32805	32570	35247	28538	33374	
1674	0	32918	32903	32362	33948	35207	28548	33340	
1675	0	32875	32839	33127	33167	35194	28546	33415	
1676	0	32934	32962	32813	34323	35230	28587	33565	
1677	0	32176	32797	31832	33466	35298	28650	33721	
1678	0	32844	32938	33147	32576	35312	28674	33709	
1679	0	33362	32627	32382	31982	35265	28765	33769	
1680	0	32616	32805	32135	32719	35298	28908	33872	
1681	0	32344	32903	32930	32839	35327	28943	33862	
1682	0	33278	32658	32407	32104	35260	28928	33835	
1683	0	32799	32762	32658	35575	35202	28932	33885	
1684	0	32408	32549	32425	32303	35179	28898	33923	
1685	0	33283	32838	32769	32575	35131	28847	33830	
1686	0	32839	32583	32632	32587	35143	28854	33787	
1687	0	32508	34747	32687	33250	35156	28789	33848	
1688	0	32576	32421	32343	33136	35249	28813	33927	
1689	0	32322	32498	32255	32941	35288	28832	34035	
1690	0	33028	32819	32519	32859	35369	28837	34070	
1691	0	32613	32725	33008	32769	35399	28812	34078	
1692	0	33065	32533	32775	32685	35346	28768	34119	
1693	0	33162	32634	33093	32422	35309	28781	34191	
1694	0	32574	32764	31831	32878	35282	28801	34226	
1695	0	32732	32763	33114	32678	35242	28764	34259	
1696	0	33213	32325	32871	32793	35194	28737	34287	
1697	0	32682	32674	32263	31962	35124	28743	34311	
1698	0	32552	32557	32613	31781	35060	28758	34352	
1699	0	32775	32846	33167	33783	35053	28765	34326	
1700	0	32737	32610	31826	36218	35032	28804	34311	
1701	0	32556	32662	33325	32654	35027	28807	34340	
1702	0	32984	32462	32344	32574	35055	28760	34331	
1703	0	32560	32408	32802	32458	35034	28751	34278	
1704	0	33108	32520	32176	32658	35001	28784	34207	
1705	0	32653	32678	33002	32775	34991	28866	34113	
1706	0	33341	33107	33125	33095	35011	28975	34119	
1707	0	32296	31782	32690	32895	35054	29035	34160	
1708	0	32984	32437	32739	32579	35264	29161	34311	
1709	0	32958	32386	32754	31968	35346	29062	34407	
1710	0	32627	32642	32891	32513	35316	28989	34435	
1711	0	32590	32813	32757	33031	35350	28957	34420	
1712	0	33280	32903	32121	33742	35382	28943	34452	
1713	0	32504	32495	32254	33000	35392	28995	34484	
1714	0	32976	32631	32946	32425	35326	29035	34489	
1715	0	32614	32478	32403	33384	35254	28946	34512	
1716	0	33227	32640	32419	32963	35170	28935	34487	
1717	0	32561	32723	32416	32468	35134	29017	34551	
1718	0	33192	32678	32435	32795	35165	29006	34683	
1719	0	32659	32742	33351	32644	35176	28903	34755	
1720	0	32443	32857	32775	31432	35195	28964	34809	
1721	0	32633	32647	31734	31387	35224	28983	34770	
1722	0	32612	32612	33133	34009	35219	29004	34715	
1723	0	33026	32554	32667	32560	35164	29084	34676	
1724	0	32910	32550	32548	33402	35113	29133	34683	
1725	0	32773	32500	32542	32623	35055	29085	34686	
1726	0	32370	32762	32995	32655	35025	29031	34755	
1727	0	32448	32696	32572	32724	35055	28959	34915	
1728	0	32796	32617	32263	32605	35039	28890	35015	
1729	0	32894	32847	33023	33487	35009	28910	35041	
1730	0	32539	32683	32886	35909	35024	28999	35066	
1731	0	32903	32420	32491	32909	35078	29179	35122	
1732	0	33017	32177	32045	32042	35180	29295	35168	
1733	0	32548	32763	32550	31889	35222	29357	35199	
1734	0	32173	32647	32550	32543	35242	29346	35137	
1735	0	32928	32625	32461	32886	35225	29315	35071	
1736	0	32470	32659	32683	32845	35194	29319	35015	
1737	0	32852	32647	33571	32555	35231	29334	34951	
1738	0	33088	32775	32647	31454	35234	29368	34840	
1739	0	32790	32861	31877	32848	35195	29392	34814	
1740	0	32931	32406	32924	32623	35177	29491	34855	
1741	0	32878	32767	32328	32560	35296	29458	34939	
1742	0	32638	32487	32759	32738	35234	29275	34995	
1743	0	32864	33210	32850	32879	35230	29209	35024	
1744	0	32994	33463	32674	32837	35335	29220	35107	
1745	0	32696	32293	32960	32775	35419	29200	35207	
1746	0	32686	32327	31477	32797	35434	29201	35286	
1747	0	32590	33033	33063	32011	35472	29272	35274	
1748	0	32600	32646	32935	31955	35495	29382	35252	
1749	0	32787	32585	32403	30355	35466	29430	35242	
1750	0	32775	32711	32642	32455	35448	29478	35235	
1751	0	32671	32809	32571	33152	35462	29559	35198	
1752	0	32828	32745	32959	32488	35430	29583	35173	
1753	0	32485	32600	32647	32569	35379	29567	35175	
1754	0	32416	32736	32566	32803	35394	29582	35083	
1755	0	32971	32785	32799	32731	35387	29601	35011	
1756	0	32676	32751	32587	32562	35335	29584	34951	
1757	0	32605	32418	32759	32036	35335	29533	34938	
1758	0	32544	31697	32518	32842	35335	29493	34971	
1759	0	33275	32897	33121	32854	35394	29506	35025	
1760	0	33135	32609	32677	32728	35368	29490	35135	
1761	0	32428	32152	32658	32748	35335	29459	35227	
1762	0	32774	33045	33799	32804	35256	29437	35374	
1763	0	32760	32535	33130	32667	35287	29411	35554	
1764	0	32894	32785	33266	32860	35234	29348	35711	
1765	0	33016	32688	32742	32459	35247	29356	35774	
1766	0	32698	31667	32307	32592	35314	29431	35767	
1767	0	32792	35232	33167	33026	35335	29542	35670	
1768	0	33074	32179	32684	32765	35360	29654	35575	
1769	0	32852	32375	32448	32900	35431	29732	35533	
1770	0	32684	33268	32734	33030	35446	29744	35484	
1771	0	32739	32583	32391	32805	35511	29703	35423	
1772	0	32982	33046	32867	32795	35636	29655	35382	
1773	0	32691	32703	32183	32638	35674	29641	35378	
1774	0	32390	32592	33220	32816	35773	29632	35334	
1775	0	32981	32924	32715	32635	35803	29590	35318	
1776	0	32775	32526	32502	32445	35787	29533	35421	
1777	0	32637	32168	32642	32774	35727	29403	35448	
1778	0	33506	34455	32808	32837	35747	29425	35332	
1779	0	33185	32275	32510	32766	35790	29474	35176	
1780	0	32434	32590	32880	32728	35833	29503	35053	
1781	0	33012	32771	32346	32801	35783	29548	35015	
1782	0	32579	32820	33577	32674	35763	29531	34995	
1783	0	32742	32803	32480	32690	35731	29479	34894	
1784	0	32760	32217	32679	30427	35610	29375	34849	
1785	0	32856	32903	32787	33704	35544	29319	34811	
1786	0	32812	32612	32814	32545	35508	29369	34866	
1787	0	32664	32775	32485	31849	35573	29373	34782	
1788	0	32967	33204	32299	34470	35542	29322	34690	
1789	0	32882	32707	32539	32583	35517	29363	34557	
1790	0	32673	32591	32438	32450	35539	29335	34462	
1791	0	32582	32754	33211	32951	35536	29264	34375	
1792	0	33074	32785	32520	33449	35456	29256	34358	
1793	0	32700	32756	32179	32559	35440	29213	34320	
1794	0	32725	32703	32974	32438	35398	29144	34300	
1795	0	32526	32804	32960	30855	35378	29082	34237	
1796	0	32934	32720	32452	31170	35413	29119	34080	
1797	0	32672	32510	32755	32833	35463	29172	33948	
1798	0	32710	32731	33704	32159	35421	29239	34003	
1799	0	32564	32621	31879	31958	35398	29314	34047	
1800	0	32882	32559	32767	32788	35395	29244	34013	
1801	0	32804	32317	32775	32260	35358	29244	33931	
1802	0	32949	32785	32729	34183	35299	29245	33902	
1803	0	33122	32524	32722	32502	35263	29161	33920	
1804	0	32474	31984	32963	32771	35275	29191	33978	
1805	0	33022	32358	32611	32719	35307	29255	34136	
1806	0	32604	32673	32579	32483	35271	29148	34311	
1807	0	32725	32823	32763	32711	35224	29043	34406	
1808	0	32688	32719	32692	33287	35247	29073	34383	
1809	0	32979	32903	32774	35271	35296	29090	34370	
1810	0	32764	32211	32088	32403	35230	29155	34396	
1811	0	32936	30446	32802	32817	35299	29267	34420	
1812	0	32868	32263	32439	32677	35413	29389	34439	
1813	0	32660	32057	32851	32628	35439	29359	34582	
1814	0	32937	32824	32711	32992	35432	29307	34695	
1815	0	32538	32492	32607	32775	35456	29309	34823	
1816	0	33000	32667	32711	32671	35459	29330	34923	
1817	0	32413	32664	32461	32666	35463	29359	35015	
1818	0	33292	32831	32941	32837	35422	29357	35062	
1819	0	32742	32631	33159	32647	35410	29350	35069	
1820	0	32702	32639	32839	32638	35431	29343	35045	
1821	0	32786	32546	32552	32455	35486	29347	35024	
1822	0	32962	32818	33587	31453	35508	29328	35014	
1823	0	32625	32701	31457	32637	35565	29423	35017	
1824	0	32748	32519	32884	32101	35654	29476	35026	
1825	0	33074	32492	32771	32859	35640	29461	35004	
1826	0	32914	32731	32475	35446	35676	29462	34927	
1827	0	32688	32747	32929	32571	35655	29539	34900	
1828	0	32866	32486	32660	32637	35651	29622	34870	
1829	0	32402	32459	32425	31948	35607	29570	34867	
1830	0	32884	32796	32529	32381	35504	29503	34872	
1831	0	32604	32662	32452	32907	35490	29442	34844	
1832	0	33269	29146	32441	32775	35440	29412	34790	
1833	0	32346	32287	32606	32592	35591	29551	34782	
1834	0	32819	31772	32508	32545	35641	29582	34861	
1835	0	33168	32358	33079	32802	35595	29542	34957	
1836	0	32756	32765	32263	32866	35523	29471	35059	
1837	0	32690	32571	33001	31710	35494	29464	35117	
1838	0	32430	31864	32295	33069	35501	29521	35102	
1839	0	32622	32742	32514	30644	35527	29619	35060	
1840	0	32850	32604	33302	32031	35577	29674	35015	
1841	0	32827	32715	32479	32242	35545	29616	34962	
1842	0	32866	32544	32647	32535	35538	29557	34919	
1843	0	32656	32771	32886	32579	35527	29565	34875	
1844	0	32740	32556	32711	32807	35565	29574	34811	
1845	0	32732	32675	32631	32605	35561	29541	34800	
1846	0	32770	32702	32538	32975	35525	29503	34823	
1847	0	33296	32839	32303	31487	35484	29440	34842	
1848	0	32764	32914	32574	33154	35399	29415	34863	
1849	0	33142	32690	32885	32595	35327	29479	34823	
1850	0	32440	32794	32285	32759	35288	29544	34783	
1851	0	32822	32432	32359	32797	35278	29591	34817	
1852	0	32711	37482	32903	33101	35296	29574	34968	
1853	0	33272	32204	32748	32752	35280	29470	35174	
1854	0	32396	32519	31936	32663	35271	29451	35282	
1855	0	33260	32691	32836	32610	35213	29480	35335	
1856	0	32898	32405	33448	32391	35286	29553	35368	
1857	0	32964	32731	31563	31628	35319	29656	35408	
1858	0	32662	32214	32591	32503	35335	29785	35410	
1859	0	32769	32543	33103	32967	35380	29791	35410	
1860	0	32586	32675	32642	32916	35431	29771	35414	
1861	0	32963	32680	32633	32665	35458	29755	35384	
1862	0	32764	32583	32480	32858	35503	29773	35326	
1863	0	32616	32804	32677	32706	35501	29811	35318	
1864	0	33080	32467	32256	32775	35506	29804	35370	
1865	0	33340	33922	32958	32966	35494	29695	35507	
1866	0	32109	32869	32630	32699	35507	29594	35678	
1867	0	32565	32946	32416	32623	35473	29516	35837	
1868	0	33799	32391	33376	32532	35476	29494	35931	
1869	0	32570	32668	32884	32626	35436	29529	35915	
1870	0	32061	32791	32677	32688	35415	29574	35879	
1871	0	33332	32334	32578	32147	35422	29574	35892	
1872	0	32178	32414	32542	32988	35430	29539	35915	
1873	0	32514	32081	32864	32297	35474	29549	35847	
1874	0	32765	32775	32308	34624	35480	29670	35798	
1875	0	32690	33390	32671	32903	35523	29779	35722	
1876	0	32297	33379	32336	32808	35577	29823	35634	
1877	0	33513	32647	32957	32011	35612	29837	35595	
1878	0	32711	32586	33452	32632	35715	29874	35567	
1879	0	32802	32703	32573	32918	35755	29863	35527	
1880	0	33213	33272	31868	32738	35760	29784	35488	
1881	0	32520	32391	32950	32317	35691	29788	35512	
1882	0	32664	30799	32132	32672	35683	29724	35514	
1883	0	32896	36973	33127	33232	35718	29726	35398	
1884	0	32598	32227	32434	32804	35776	29779	35326	
1885	0	32586	32286	32747	32102	35782	29806	35330	
1886	0	33227	32462	32499	33110	35778	29803	35330	
1887	0	32256	32822	32694	32911	35737	29826	35242	
1888	0	32526	32782	32743	33863	35758	29796	35122	
1889	0	33441	32754	32438	32569	35771	29795	35061	
1890	0	32742	32545	32578	32773	35711	29690	35042	
1891	0	32710	32475	32479	32119	35643	29615	34957	
1892	0	32760	32859	33700	33767	35623	29607	34872	
1893	0	32552	32658	31557	32327	35623	29608	34781	
1894	0	33222	32671	32647	32463	35625	29574	34675	
1895	0	32909	32674	33429	31997	35587	29535	34652	
1896	0	32617	32690	32171	33636	35555	29454	34720	
1897	0	32718	32702	32426	34552	35504	29410	34759	
1898	0	33024	32758	32952	32555	35521	29369	34722	
1899	0	33071	32564	32747	35858	35540	29401	34646	
1900	0	32493	32774	32447	33821	35483	29469	34587	
1901	0	32728	33191	32488	33271	35517	29500	34535	
1902	0	32125	33302	32537	32581	35485	29534	34468	
1903	0	32036	30493	32443	32209	35499	29516	34431	
1904	0	32784	37624	33124	33089	35506	29519	34398	
1905	0	32728	33271	32692	32740	35619	29575	34458	
1906	0	32786	32135	32576	32667	35603	29523	34591	
1907	0	33276	32315	32946	32797	35560	29435	34766	
1908	0	33040	32595	32743	32795	35525	29364	34875	
1909	0	32576	32545	32634	32808	35507	29369	34893	
1910	0	32594	32603	32547	32723	35509	29394	34811	
1911	0	32708	32263	32376	32958	35552	29464	34787	
1912	0	33201	32323	33539	32446	35581	29497	34823	
1913	0	32452	32407	30367	32547	35641	29480	34867	
1914	0	33956	32894	33415	33319	35705	29433	34710	
1915	0	32855	32711	32962	32095	35700	29358	34543	
1916	0	33876	32747	32532	32677	35684	29322	34452	
1917	0	32674	32574	32544	32690	35702	29267	34484	
1918	0	32604	32723	33389	32714	35719	29247	34525	
1919	0	32620	32733	32626	32646	35829	29273	34554	
1920	0	33640	32844	33719	32887	35770	29283	34569	
1921	0	32656	32889	32371	32825	35687	29318	34533	
1922	0	32587	32233	32679	31879	35632	29319	34439	
1923	0	32581	33819	32419	32480	35577	29343	34403	
1924	0	32808	32505	32542	32730	35549	29348	34422	
1925	0	33029	32635	32771	32670	35567	29348	34439	
1926	0	32578	32465	32761	32907	35606	29461	34451	
1927	0	32330	32225	32196	32767	35655	29515	34488	
1928	0	32911	32182	32711	32316	35648	29532	34525	
1929	0	31936	34259	32423	32704	35649	29557	34578	
1930	0	32372	31483	32583	32759	35644	29589	34590	
1931	0	32873	32198	31845	28775	35674	29600	34614	
1932	0	33238	32943	32339	33037	35690	29639	34644	
1933	0	32527	32582	32767	33439	35694	29592	34610	
1934	0	32930	32827	32992	32814	35746	29574	34500	
1935	0	33178	32819	32434	33826	35766	29528	34431	
1936	0	32436	32775	33318	33388	35792	29463	34417	
1937	0	33414	32738	31870	32804	35781	29403	34418	
1938	0	32362	32946	33304	35301	35696	29410	34512	
1939	0	32568	32505	32590	32325	35628	29307	34530	
1940	0	32694	32679	32495	32685	35701	29234	34547	
1941	0	32790	32569	33055	32885	35758	29202	34606	
1942	0	32556	32429	32361	33052	35686	29223	34672	
1943	0	32762	33003	32866	32563	35670	29270	34586	
1944	0	32728	32973	32463	32710	35638	29345	34513	
1945	0	32876	32505	32666	32570	35564	29329	34501	
1946	0	32619	32582	32706	32343	35504	29307	34600	
1947	0	32652	32722	32614	32976	35431	29277	34691	
1948	0	32822	32690	32954	32595	35431	29305	34733	
1949	0	32993	34329	32512	32786	35432	29379	34710	
1950	0	32592	32601	32854	29442	35399	29413	34720	
1951	0	32452	32739	32530	32406	35393	29456	34723	
1952	0	32764	32598	32998	32688	35448	29438	34723	
1953	0	32939	32743	32658	31792	35471	29449	34681	
1954	0	32622	32711	32240	33083	35499	29465	34667	
1955	0	32730	32759	32438	32577	35543	29471	34663	
1956	0	33695	32638	32643	32727	35526	29447	34659	
1957	0	32711	32893	32733	32376	35595	29399	34695	
1958	0	32666	32391	32347	33024	35521	29335	34768	
1959	0	32626	32647	32839	32955	35538	29325	34758	
1960	0	32761	32274	32524	32610	35602	29344	34759	
1961	0	33125	32156	32546	32530	35593	29319	34770	
1962	0	32839	33146	32536	32748	35566	29284	34848	
1963	0	32826	33123	32683	32748	35583	29319	34962	
1964	0	32423	32299	32691	32711	35605	29324	35090	
1965	0	32915	32481	32846	32594	35551	29330	35192	
1966	0	32812	32856	32483	32391	35542	29321	35238	
1967	0	32896	32790	32727	31515	35564	29327	35204	
1968	0	33060	32673	32774	35294	35519	29328	35140	
1969	0	32583	32435	32971	31623	35527	29370	35072	
1970	0	32748	32866	32741	32254	35522	29421	34987	
1971	0	32668	32940	32571	32336	35541	29449	34944	
1972	0	32860	32617	32651	32487	35521	29461	34935	
1973	0	32447	32628	32194	32663	35527	29428	34881	
1974	0	33308	32865	32931	32914	35561	29403	34841	
1975	0	32263	32886	32303	32914	35506	29397	34823	
1976	0	32704	35117	32666	33183	35519	29400	34806	
1977	0	32878	32427	32549	32647	35510	29413	34783	
1978	0	32593	32444	32414	32797	35497	29388	34810	
1979	0	33022	31007	32489	32466	35491	29382	34846	
1980	0	32994	32327	32436	32734	35513	29444	34835	
1981	0	33192	32374	32759	32601	35533	29480	34863	
1982	0	32550	31963	32707	32619	35565	29428	34902	
1983	0	32960	32742	32361	32715	35513	29435	34948	
1984	0	32826	32775	32467	32673	35508	29437	34987	
1985	0	32752	32542	32628	29893	35499	29413	35004	
1986	0	32736	32578	32293	33145	35497	29419	35005	
1987	0	32942	32750	32695	32514	35508	29405	34935	
1988	0	32802	32721	32804	32850	35488	29371	34891	
1989	0	32477	32698	32695	32745	35431	29353	34847	
1990	0	32929	32437	32503	32483	35450	29314	34864	
1991	0	32796	32834	32403	32615	35458	29277	34914	
1992	0	32456	32219	32723	32695	35458	29307	34930	
1993	0	32820	32644	32301	32819	35482	29295	34961	
1994	0	32352	30803	32746	32671	35463	29245	34915	
1995	0	32308	32248	32639	32711	35463	29222	34902	
1996	0	33001	31834	33390	32597	35523	29252	34935	
1997	0	32658	32448	32122	32813	35523	29255	34980	
1998	0	32544	32595	33034	32719	35518	29250	35052	
1999	0	32839	32471	32511	32595	35439	29198	35024	
2000	0	33330	34052	33025	32869	35431	29172	34969	
2001	0	32306	32223	32659	32688	35408	29169	34959	
2002	0	32924	32477	32850	32613	35383	29205	34979	
2003	0	32342	32443	32453	32624	35443	29255	34983	
2004	0	33129	32349	32824	32817	35533	29279	34991	
2005	0	32642	32638	32613	32642	35544	29200	35015	
2006	0	32758	32885	32586	32806	35507	29167	35001	
2007	0	32388	32843	32471	33137	35435	29060	34907	
2008	0	32744	33197	32640	32825	35335	29003	34726	
2009	0	32605	32120	33171	32647	35334	29046	34599	
2010	0	32801	32903	32722	32423	35298	29125	34546	
2011	0	32628	33326	32580	32773	35348	29145	34541	
2012	0	32932	32351	32591	32633	35349	29095	34569	
2013	0	32608	30403	32594	32630	35328	29057	34503	
2014	0	32560	34567	32924	33048	35326	29091	34456	
2015	0	32891	31922	32408	32711	35506	29189	34496	
2016	0	32794	31435	32929	32499	35456	29103	34532	
2017	0	32690	35293	32595	32954	35366	29019	34562	
2018	0	32637	31556	32694	32552	35306	28944	34483	
2019	0	32677	32385	32632	32107	35360	28926	34439	
2020	0	32358	32615	32061	32870	35358	28985	34367	
2021	0	32549	32465	32526	32683	35358	29034	34270	
2022	0	33099	32327	32657	24836	35346	28999	34162	
2023	0	32514	32611	32437	33426	35350	28953	34052	
2024	0	32715	32605	32700	32765	35293	28884	33950	
2025	0	32736	32758	32219	34022	35301	28947	33825	
2026	0	32742	32738	32603	32775	35313	29027	33704	
2027	0	32645	33082	32696	32737	35335	28987	33620	
2028	0	32869	32729	32859	33119	35322	28921	33606	
2029	0	32718	30311	32791	32505	35399	28926	33671	
2030	0	32184	35474	33000	32839	35438	28967	33820	
2031	0	33449	31802	32475	32775	35556	28974	33955	
2032	0	33158	32739	32454	32713	35565	28862	34066	
2033	0	32976	32962	32773	32935	35547	28814	34114	
2034	0	34028	32346	32687	32658	35618	28788	34119	
2035	0	32454	32797	32991	32895	35619	28804	34153	
2036	0	32636	32449	32669	32739	35623	28803	34150	
2037	0	32642	32631	32849	33093	35573	28826	34131	
2038	0	32828	32629	32423	33783	35493	28819	34089	
2039	0	32788	33449	32141	32656	35373	28785	33978	
2040	0	32800	31973	32414	28068	35266	28786	33823	
2041	0	32646	32676	32538	32903	35335	28903	33634	
2042	0	32821	32663	32839	32578	35351	29028	33415	
2043	0	32640	32788	32678	32615	35335	29136	33193	
2044	0	32858	32727	32885	32858	35303	29063	33042	
2045	0	32619	32541	32570	32653	35269	28951	32996	
2046	0	32208	32632	32583	32743	35231	28827	33041	
2047	0	33050	32721	32400	32902	35264	28755	33090	
2048	0	32501	32663	33024	32161	35253	28800	33127	
2049	0	33220	32856	32687	32962	35207	28822	33146	
2050	0	33089	33067	32912	32635	35234	28870	33254	
2051	0	32730	31656	32786	32670	35368	28883	33466	
2052	0	32993	31509	32775	32685	35483	28839	33677	
2053	0	32538	32284	32729	32854	35579	28815	33842	
2054	0	32617	32253	32660	32711	35666	28776	34006	
2055	0	33017	32791	32687	32737	35645	28730	34113	
2056	0	32500	32804	32583	32838	35569	28646	34083	
2057	0	33370	32775	32925	32690	35497	28640	33974	
2058	0	32818	32195	32408	32495	35417	28584	33863	
2059	0	33296	34841	32587	32936	35307	28549	33760	
2060	0	33256	31879	32587	32606	35316	28559	33723	
2061	0	33629	32215	33920	32883	35331	28567	33709	
2062	0	32624	32775	32872	33078	35369	28584	33713	
2063	0	32775	32335	32631	32758	35348	28626	33665	
2064	0	32638	33280	32665	34275	35390	28647	33610	
2065	0	32976	32625	32506	32921	35387	28695	33577	
2066	0	32652	32742	32612	32980	35346	28720	33543	
2067	0	32711	32882	32791	32314	35412	28822	33474	
2068	0	32919	32612	32387	32651	35421	28995	33360	
2069	0	33068	32790	33124	32754	35402	29090	33310	
2070	0	32822	31599	32888	32825	35494	29033	33318	
2071	0	32608	39962	32551	33384	35456	28952	33282	
2072	0	32867	31842	32378	32849	35427	28847	33287	
2073	0	32622	32512	32979	32930	35434	28789	33362	
2074	0	32985	32720	32438	30552	35442	28822	33440	
2075	0	33454	32695	33117	33089	35455	28807	33447	
2076	0	33556	32749	33191	32843	35452	28739	33362	
2077	0	32568	32683	32375	32647	35461	28679	33274	
2078	0	32708	32581	33127	32135	35451	28663	33240	
2079	0	32432	32464	32431	32354	35433	28663	33230	
2080	0	32622	32895	32372	32647	35431	28645	33171	
2081	0	32502	32680	32406	32742	35437	28617	33108	
2082	0	33200	32647	32903	33512	35429	28586	33203	
2083	0	32764	32976	32152	34527	35414	28512	33272	
2084	0	32888	32615	32114	32843	35385	28480	33271	
2085	0	32247	32638	32561	32860	35394	28499	33182	
2086	0	32800	32530	32688	34513	35376	28557	33159	
2087	0	32098	32739	32263	30678	35390	28632	33179	
2088	0	32884	32605	32730	32247	35415	28706	33197	
2089	0	32684	32937	32505	32891	35392	28704	33218	
2090	0	32485	32837	33031	32141	35430	28584	33157	
2091	0	32796	32663	32359	33435	35335	28511	33140	
2092	0	32979	32738	32995	32820	35322	28576	33167	
2093	0	32525	33285	32964	32988	35303	28658	33249	
2094	0	32635	32407	32775	33374	35258	28750	33255	
2095	0	32845	35207	32464	33223	35319	28803	33310	
2096	0	32944	32763	32868	32987	35415	28845	33400	
2097	0	32228	32191	32150	32640	35507	28925	33511	
2098	0	32696	32775	32570	32788	35563	28904	33590	
2099	0	33088	32771	32653	32676	35498	28762	33644	
2100	0	32820	32631	32571	32839	35425	28703	33655	
2101	0	31992	32669	33060	32859	35360	28725	33690	
2102	0	32664	32803	32970	32919	35368	28800	33702	
2103	0	32434	33220	32494	32886	35434	28829	33792	
2104	0	32646	32735	32573	32740	35463	28847	33897	
2105	0	32988	31215	32717	32609	35483	28834	33975	
2106	0	32760	34446	32745	32998	35488	28865	33988	
2107	0	33095	32234	32516	32691	35555	28913	34043	
2108	0	32688	32474	32823	32658	35569	28905	34177	
2109	0	32422	32931	32885	32796	35492	28795	34228	
2110	0	33071	32018	32455	32909	35474	28766	34226	
2111	0	32690	32716	32839	32687	35459	28784	34134	
2112	0	32540	32542	32768	32290	35473	28837	34040	
2113	0	32846	32619	32724	32865	35533	28926	34009	
2114	0	32829	32684	32742	31820	35559	29038	33972	
2115	0	32552	32455	32669	32824	35615	29054	33879	
2116	0	32800	32981	32832	32927	35611	29010	33730	
2117	0	32782	32695	32599	32831	35649	28934	33633	
2118	0	32620	32699	32708	32699	35631	28842	33567	
2119	0	32851	32583	33095	32775	35519	28864	33625	
2120	0	32762	32678	32912	32626	35446	28900	33671	
2121	0	32740	32543	32363	32789	35435	28909	33618	
2122	0	32677	32687	32751	32699	35408	28845	33573	
2123	0	32847	32562	32639	32742	35371	28743	33538	
2124	0	32800	32587	32763	32741	35335	28679	33520	
2125	0	32632	32434	32700	32160	35335	28697	33536	
2126	0	32768	32769	32663	32734	35322	28697	33543	
2127	0	32488	32721	32108	32519	35356	28724	33506	
2128	0	32451	32418	32644	32543	35305	28689	33461	
2129	0	32386	32717	32873	29632	35269	28687	33383	
2130	0	32904	32470	32482	32101	35247	28679	33357	
2131	0	32704	32615	32594	31746	35224	28728	33422	
2132	0	32730	32583	32513	32775	35202	28737	33438	
2133	0	32582	32993	32821	32677	35216	28801	33390	
2134	0	32680	32998	32310	32719	35297	28883	33415	
2135	0	32936	32667	32731	32680	35347	28774	33557	
2136	0	32752	32749	32697	32805	35318	28610	33687	
2137	0	32745	32589	32877	32839	35287	28471	33719	
2138	0	33216	32839	33084	33235	35260	28524	33698	
2139	0	32600	32696	32251	33592	35230	28727	33715	
2140	0	32700	32494	32536	32699	35271	28790	33703	
2141	0	32905	32573	32679	33359	35308	28778	33659	
2142	0	32651	32528	32642	32358	35316	28662	33669	
2143	0	32642	32621	33220	32699	35216	28519	33730	
2144	0	32732	32894	32615	32711	35203	28528	33798	
2145	0	33144	32768	32711	32740	35175	28615	33823	
2146	0	32713	32655	32473	32723	35191	28671	33817	
2147	0	32714	32647	32545	32354	35176	28679	33895	
2148	0	32681	32624	32674	32555	35199	28698	33967	
2149	0	32824	32263	32477	32605	35188	28688	34004	
2150	0	33018	34585	32637	32826	35216	28695	34083	
2151	0	32448	31589	33011	33507	35226	28679	34127	
2152	0	32598	32105	32495	32628	35250	28629	34147	
2153	0	32612	33267	32608	32615	35268	28642	34136	
2154	0	32547	32608	32334	32706	35281	28727	34181	
2155	0	32767	32802	33037	32789	35287	28749	34250	
2156	0	32992	32819	32820	32804	35279	28845	34339	
2157	0	33032	32903	32644	32674	35315	28842	34452	
2158	0	33042	32658	32263	32717	35317	28786	34525	
2159	0	32554	32587	32553	32822	35267	28767	34543	
2160	0	32894	32771	33107	32876	35225	28811	34483	
2161	0	32940	32797	32975	33115	35251	28843	34426	
2162	0	33043	32954	32851	32879	35264	28905	34393	
2163	0	32548	31344	32598	31270	35307	28938	34372	
2164	0	32617	33060	32492	32543	35303	28964	34336	
2165	0	32929	31805	32438	32435	35282	28967	34270	
2166	0	32792	34482	32576	32833	35294	28991	34218	
2167	0	33650	32577	32615	32742	35311	29030	34213	
2168	0	32530	32775	32832	32720	35323	29024	34273	
2169	0	33387	32410	32793	32825	35348	28991	34345	
2170	0	32524	32315	32469	32705	35335	28959	34378	
2171	0	33010	32474	32978	32703	35335	28965	34365	
2172	0	32216	32803	32455	32632	35363	28995	34393	
2173	0	33436	33230	33144	33075	35308	29011	34397	
2174	0	32868	32578	32673	32749	35325	29012	34414	
2175	0	32352	32014	32608	32662	35335	28985	34385	
2176	0	32868	32518	32791	32799	35350	28891	34351	
2177	0	32764	32581	32694	32775	35354	28813	34271	
2178	0	32647	32514	32734	32674	35387	28825	34205	
2179	0	32747	32564	32827	32647	35320	28812	34204	
2180	0	32765	32495	32935	31675	35335	28807	34204	
2181	0	32694	32744	32717	33388	35335	28758	34164	
2182	0	32804	32586	32831	33833	35335	28690	34036	
2183	0	33001	32785	32758	32263	35303	28646	33950	
2184	0	32697	32775	32418	33301	35332	28679	33940	
2185	0	32617	32763	32647	30897	35258	28728	33976	
2186	0	32802	32679	32583	32801	35296	28807	33982	
2187	0	32932	32756	32775	34095	35303	28829	33910	
2188	0	32752	32722	32867	32065	35271	28801	33842	
2189	0	33684	32671	32706	32615	35235	28716	33799	
2190	0	32640	32880	32240	32214	35207	28695	33810	
2191	0	32622	32879	32491	35463	35225	28679	33812	
2192	0	32876	32790	32771	31858	35271	28644	33739	
2193	0	33152	32635	32665	32803	35269	28667	33664	
2194	0	33153	32867	32549	32790	35210	28679	33632	
2195	0	32637	32423	33117	32974	35241	28713	33656	
2196	0	32628	32005	33265	33279	35234	28754	33695	
2197	0	32808	32694	32471	31918	35286	28767	33680	
2198	0	32718	32635	32636	33520	35232	28739	33666	
2199	0	33031	32540	32461	32706	35255	28824	33648	
2200	0	32800	32935	32555	32864	35309	28907	33655	
2201	0	32602	31935	32548	32827	35394	28960	33678	
2202	0	32593	32067	32671	32624	35374	28934	33712	
2203	0	32709	32826	32647	32802	35394	28890	33825	
2204	0	32797	32591	32544	32745	35419	28860	33978	
2205	0	32644	32994	32523	32719	35424	28799	34019	
2206	0	32541	32656	32753	32551	35427	28752	34018	
2207	0	32722	32766	33060	32775	35335	28770	33974	
2208	0	32902	32703	33067	33097	35335	28820	33964	
2209	0	32714	32886	32581	31045	35383	28863	33962	
2210	0	32764	32543	32791	32518	35364	28847	33979	
2211	0	32753	32825	32711	32417	35390	28828	33970	
2212	0	32971	32621	32398	32711	35392	28812	33917	
2213	0	32620	32762	32379	32291	35391	28833	33884	
2214	0	32688	32617	32530	32822	35383	28856	33875	
2215	0	32922	32509	32918	32767	35357	28917	33924	
2216	0	32590	32607	32733	32744	35392	28925	33989	
2217	0	32808	32604	32806	32819	35330	28867	34063	
2218	0	32626	32473	32452	32693	35256	28837	34085	
2219	0	32810	32415	32535	32711	35287	28823	34143	
2220	0	32802	32526	32586	32885	35311	28827	34183	
2221	0	32731	32962	32603	32547	35333	28850	34232	
2222	0	32856	32331	32486	32751	35360	28822	34299	
2223	0	32382	32612	32554	32746	35371	28778	34339	
2224	0	32813	31852	32802	32545	35302	28774	34335	
2225	0	32721	31343	32530	32813	35330	28817	34294	
2226	0	32582	33262	32603	32807	35347	28851	34267	
2227	0	32824	32461	32703	32763	35358	28835	34287	
2228	0	32881	32658	32508	32737	35303	28839	34295	
2229	0	32856	32598	32549	32775	35280	28844	34279	
2230	0	32706	32676	32721	32875	35287	28836	34255	
2231	0	32890	32145	33263	32631	35286	28841	34218	
2232	0	32775	32710	32607	33300	35286	28888	34183	
2233	0	33082	32391	32488	32455	35239	28905	34178	
2234	0	32912	33670	32862	32936	35225	28867	34187	
2235	0	32861	34529	32925	32818	35271	28871	34148	
2236	0	32616	32534	32595	32024	35335	28871	34134	
2237	0	32668	32548	32775	32676	35350	28864	34135	
2238	0	32704	32734	32477	32859	35360	28850	34078	
2239	0	32904	32763	32511	32667	35403	28820	34026	
2240	0	32956	32545	32827	32696	35399	28817	33991	
2241	0	32634	32919	32374	32839	35394	28824	33995	
2242	0	32652	32747	32700	32542	35396	28819	34010	
2243	0	32731	33074	32632	32756	35371	28813	33971	
2244	0	32262	31864	32242	32703	35335	28806	33921	
2245	0	32820	32607	32246	32839	35359	28815	33941	
2246	0	32344	31955	32152	32583	35334	28802	34007	
2247	0	33100	32335	32535	32792	35326	28770	34027	
2248	0	33015	32563	32409	32728	35323	28710	34045	
2249	0	32586	31978	32594	32631	35330	28703	34002	
2250	0	32580	33445	32262	32816	35303	28679	33958	
2251	0	33565	33518	32615	32763	35369	28743	33927	
2252	0	33138	31643	32525	32877	35369	28775	33926	
2253	0	32726	32541	32935	32685	35364	28759	33927	
2254	0	32640	32817	32487	32728	35360	28741	33943	
2255	0	32732	33023	32930	32742	35405	28698	33910	
2256	0	32793	34071	32611	33646	35330	28640	33851	
2257	0	33134	32154	32647	32140	35292	28603	33799	
2258	0	32635	32374	32581	33358	35279	28673	33735	
2259	0	32750	32346	32391	32009	35286	28778	33721	
2260	0	32996	32611	32566	31672	35231	28834	33730	
2261	0	32671	32727	32416	33242	35271	28831	33700	
2262	0	32508	32800	32768	33010	35271	28822	33615	
2263	0	32540	32538	33013	32942	35265	28765	33538	
2264	0	32978	32623	32452	32694	35303	28717	33470	
2265	0	32450	32663	32711	32695	35276	28710	33456	
2266	0	32885	32550	32564	32836	35282	28706	33458	
2267	0	32763	32845	32662	32770	35301	28716	33423	
2268	0	32808	32611	32711	32883	35252	28688	33392	
2269	0	32715	32610	32477	32847	35245	28647	33375	
2270	0	32648	33638	32763	32686	35195	28612	33372	
2271	0	32568	33444	32353	32879	35235	28558	33384	
2272	0	32769	32020	32587	32859	35274	28576	33438	
2273	0	32870	32431	32573	32749	35305	28624	33504	
2274	0	32965	32455	32599	32671	35314	28604	33561	
2275	0	32718	32604	32604	32575	35282	28595	33592	
2276	0	32664	32607	32617	32616	35267	28630	33559	
2277	0	32968	33353	32491	32740	35323	28667	33502	
2278	0	32811	32677	32238	32626	35315	28679	33447	
2279	0	32711	33479	32623	32750	35363	28653	33464	
2280	0	32929	32820	32797	32759	35330	28647	33464	
2281	0	32744	32609	32993	32668	35334	28660	33489	
2282	0	33060	32536	32647	32376	35315	28635	33458	
2283	0	32598	32151	32507	32774	35306	28652	33425	
2284	0	32684	32516	32472	32217	35316	28694	33423	
2285	0	32834	32563	32578	32759	35334	28679	33415	
2286	0	32756	32711	32787	32709	35315	28700	33420	
2287	0	32888	32803	32556	33028	35303	28719	33415	
2288	0	32573	32960	32571	33024	35328	28715	33385	
2289	0	33336	32831	32563	32685	35330	28717	33383	
2290	0	32717	32679	32842	32762	35335	28717	33361	
2291	0	32888	33152	32586	32846	35359	28748	33355	
2292	0	32775	32815	32637	32617	35360	28725	33397	
2293	0	32624	32685	32591	32751	35369	28689	33490	
2294	0	32749	33079	32497	32839	35334	28679	33534	
2295	0	32784	31917	32511	32727	35328	28712	33569	
2296	0	32304	33310	32488	32731	35362	28734	33589	
2297	0	33112	32412	32834	32720	35357	28739	33652	
2298	0	32368	32554	32223	32691	35353	28676	33689	
2299	0	32632	32689	32938	32786	35315	28698	33718	
2300	0	33155	32151	32522	32623	35287	28711	33735	
2301	0	33076	32742	32839	32600	35301	28671	33762	
2302	0	32752	32800	32631	32846	35271	28663	33775	
2303	0	32788	33553	32754	32791	35267	28610	33755	
2304	0	32544	32874	32571	32647	35283	28632	33695	
2305	0	32827	32595	32775	32635	35291	28640	33676	
2306	0	32548	32682	32371	32339	35266	28677	33615	
2307	0	32848	32933	32627	34690	35299	28627	33593	
2308	0	32752	32954	32624	33074	35274	28618	33556	
2309	0	32675	32775	32507	32887	35276	28624	33502	
2310	0	32832	32727	32708	33207	35296	28602	33471	
2311	0	32656	32550	32462	33150	35294	28601	33455	
2312	0	32775	32647	32637	32583	35287	28615	33415	
2313	0	33136	32754	32663	32629	35302	28613	33383	
2314	0	32491	32775	32364	32725	35257	28591	33403	
2315	0	33020	32798	32660	32741	35282	28563	33435	
2316	0	32642	32679	32470	31904	35207	28566	33437	
2317	0	32711	32875	32694	32784	35245	28608	33423	
2318	0	32751	32167	32601	32512	35254	28611	33439	
2319	0	32667	32195	32383	32950	35242	28615	33419	
2320	0	32775	32737	32647	32844	35252	28643	33426	
2321	0	32892	32835	32711	32640	35264	28652	33428	
2322	0	32688	32738	32619	32704	35287	28670	33415	
2323	0	33086	32535	32836	32771	35226	28635	33363	
2324	0	32808	32733	32733	33577	35286	28606	33339	
2325	0	32647	32536	32610	32304	35255	28563	33343	
2326	0	32714	32793	32707	32436	35242	28603	33335	
2327	0	32794	32664	32816	32921	35250	28594	33316	
2328	0	32764	32762	32447	32816	35278	28628	33287	
2329	0	32786	32742	32669	32773	35282	28624	33243	
2330	0	32768	32647	32598	32570	35286	28598	33181	
2331	0	32541	32800	32637	32654	35279	28574	33132	
2332	0	32570	32899	32570	33830	35227	28515	33095	
2333	0	32948	32719	32669	32421	35223	28571	33058	
2334	0	32758	32443	32798	33287	35267	28674	33155	
2335	0	32692	31507	32493	32247	35207	28743	33379	
2336	0	32838	33039	32751	32865	35293	28847	33438	
2337	0	32710	32608	32799	32831	35423	28795	33554	
2338	0	32729	32513	32775	32798	35335	28615	33683	
2339	0	32768	32756	32612	32662	35346	28541	33794	
2340	0	32312	32775	32659	32679	35365	28630	33839	
2341	0	33381	32622	32647	32854	35393	28726	33850	
2342	0	32864	32479	32643	32687	35382	28748	33836	
2343	0	33030	32631	32734	33871	35356	28752	33776	
2344	0	32554	32599	32711	31544	35364	28758	33685	
2345	0	32636	32527	32416	32752	35335	28744	33613	
2346	0	32717	32699	32323	32579	35328	28767	33527	
2347	0	33250	32512	32588	32687	35353	28801	33513	
2348	0	32912	32763	32452	32849	35459	28837	33541	
2349	0	32905	32675	32762	33185	35438	28765	33606	
2350	0	32250	32474	32527	32774	35430	28691	33681	
2351	0	32755	32673	32748	32991	35418	28679	33747	
2352	0	32477	32661	32474	32295	35384	28720	33839	
2353	0	32624	32786	32476	33520	35410	28746	33799	
2354	0	32728	32613	32815	30808	35378	28791	33792	
2355	0	32782	32842	32171	35488	35331	28775	33808	
2356	0	32991	32499	32001	31943	35311	28750	33825	
2357	0	32720	32821	32775	32825	35255	28754	33892	
2358	0	32706	32719	32520	32775	35218	28751	33971	
2359	0	32692	32157	31830	32828	35234	28828	33991	
2360	0	32602	33024	32532	33847	35238	28873	34013	
2361	0	32420	32342	32359	32611	35236	28863	34081	
2362	0	33442	32542	32681	32524	35251	28880	34162	
2363	0	33060	32536	32634	34464	35259	28875	34149	
2364	0	32666	32524	32927	32642	35254	28879	34111	
2365	0	33068	32570	33010	32498	35293	28949	34119	
2366	0	33159	32868	32682	32391	35331	29018	34183	
2367	0	32332	32640	33823	32874	35335	29020	34263	
2368	0	33040	32572	32666	32664	35270	28980	34311	
2369	0	33053	32931	32655	33274	35255	29013	34306	
2370	0	32624	32694	32917	33270	35266	29036	34347	
2371	0	33167	32823	31927	32731	35261	29008	34384	
2372	0	32362	32640	33254	32775	35262	29063	34475	
2373	0	33760	32696	33028	33942	35360	29055	34623	
2374	0	32528	32694	33313	34413	35313	29057	34717	
2375	0	32906	32668	32391	33010	35285	29070	34731	
2376	0	32614	32913	33087	31387	35287	29086	34699	
2377	0	32624	32495	32344	32573	35307	29168	34603	
2378	0	32812	32723	32892	32544	35318	29319	34561	
2379	0	32688	32774	32707	31708	35311	29307	34557	
2380	0	32912	32775	32793	33368	35207	29371	34595	
2381	0	32566	32634	32497	32815	35207	29414	34583	
2382	0	32800	32711	32701	32665	35201	29414	34586	
2383	0	33046	32551	32699	32747	35207	29400	34619	
2384	0	32636	33319	32802	32879	35176	29411	34609	
2385	0	32984	32263	32617	32734	35132	29431	34569	
2386	0	32870	32836	33378	32115	35362	29542	34657	
2387	0	32705	32577	32191	32728	35452	29456	34804	
2388	0	32898	32596	32918	32660	35428	29462	34944	
2389	0	32722	32971	32931	30515	35420	29492	35030	
2390	0	32993	32594	33799	31987	35455	29501	35056	
2391	0	32542	32811	31420	34293	35440	29449	35101	
2392	0	32854	32331	32583	32836	35395	29463	35087	
2393	0	32669	32692	32758	32348	35311	29535	34871	
2394	0	32813	33740	32374	36380	35227	29552	34723	
2395	0	32813	32943	32717	30454	35243	29595	34810	
2396	0	33131	33101	31817	33047	35178	29599	34941	
2397	0	32344	32675	32263	33010	35130	29619	35031	
2398	0	32988	32688	32681	32527	35222	29766	35055	
2399	0	32646	32745	32199	32613	35258	29755	35117	
2400	0	32594	32775	32936	32752	35267	29777	35192	
2401	0	32942	32989	32752	33235	35323	29812	35307	
2402	0	32808	32722	32793	32646	35484	29750	35350	
2403	0	32716	32811	31832	33362	35501	29591	35439	
2404	0	32869	32809	32998	32607	35398	29466	35515	
2405	0	32871	32215	32923	33535	35283	29426	35573	
2406	0	32996	32672	32623	36530	35497	29658	35581	
2407	0	32775	32731	32594	32446	35495	29580	35613	
2408	0	32980	32622	32343	31743	35447	29471	35730	
